{
    "Instructions": "",
    "RepetitionTime": 1.8,
    "SliceTiming": [],
    "TaskDescription": "",
    "TaskName": "visual Localizer",
    "aperture": {
        "type": "none"
    },
    "audio": {
        "do": false
    },
    "bids": {
        "MRI": {
            "Instructions": "Detect the repeated stimulus",
            "TaskDescription": []
        },
        "beh": {
            "Instructions": [],
            "TaskName": "visual Localizer"
        },
        "datasetDescription": {
            "Acknowledgements": "",
            "Authors": [""],
            "BIDSVersion": "",
            "DatasetDOI": "",
            "Funding": [""],
            "HowToAcknowledge": "",
            "License": "",
            "Name": "",
            "ReferencesAndLinks": [""]
        },
        "eeg": {
            "EEGReference": "",
            "Instructions": "",
            "PowerLineFrequency": 50,
            "SamplingFrequency": [],
            "SoftwareFilters": "n/a",
            "TaskName": "visual Localizer"
        },
        "ieeg": {
            "Instructions": "",
            "PowerLineFrequency": 50,
            "SamplingFrequency": [],
            "SoftwareFilters": "n/a",
            "TaskName": "visual Localizer",
            "iEEGReference": ""
        },
        "meg": {
            "DewarPosition": [],
            "DigitizedHeadPoints": [],
            "DigitizedLandmarks": [],
            "Instructions": "",
            "PowerLineFrequency": 50,
            "SamplingFrequency": [],
            "SoftwareFilters": "n/a",
            "TaskName": "visual Localizer"
        },
        "mri": {
            "Instructions": "",
            "RepetitionTime": 1.8,
            "SliceTiming": [],
            "TaskDescription": "",
            "TaskName": "visual Localizer"
        }
    },
    "color": {
        "background": [0,0,0],
        "black": [0,0,0],
        "grey": [127.5,127.5,127.5],
        "red": [255,0,0],
        "white": [255,255,255]
    },
    "debug": {
        "do": true,
        "showMouse": false,
        "smallWin": false,
        "transpWin": false
    },
    "design": {
        "localizer": "VWFA",
        "names": [
            "fw",
            "sfw",
            "bw",
            "sbw",
            "ld",
            "sld"
        ],
        "nbRepetitions": 12,
        "nbEventsPerBlock": 20,
        "blockNames": [
            "fw",
            "sfw",
            "bw",
            "sbw",
            "ld",
            "sld",
            "fw",
            "sfw",
            "bw",
            "sbw",
            "ld",
            "sld",
            "fw",
            "sfw",
            "bw",
            "sbw",
            "ld",
            "sld",
            "fw",
            "sfw",
            "bw",
            "sbw",
            "ld",
            "sld",
            "fw",
            "sfw",
            "bw",
            "sbw",
            "ld",
            "sld",
            "fw",
            "sfw",
            "bw",
            "sbw",
            "ld",
            "sld",
            "fw",
            "sfw",
            "bw",
            "sbw",
            "ld",
            "sld",
            "fw",
            "sfw",
            "bw",
            "sbw",
            "ld",
            "sld",
            "fw",
            "sfw",
            "bw",
            "sbw",
            "ld",
            "sld",
            "fw",
            "sfw",
            "bw",
            "sbw",
            "ld",
            "sld",
            "fw",
            "sfw",
            "bw",
            "sbw",
            "ld",
            "sld",
            "fw",
            "sfw",
            "bw",
            "sbw",
            "ld",
            "sld"
        ],
        "nbBlocks": 72,
        "repetitionTargets": [[0,0,0,0,0,0,0,0,0,0,0,0,0,0,0,0,0,0,0,0],[0,0,0,0,0,0,0,0,0,0,0,0,0,0,0,0,0,0,0,0],[0,0,0,0,0,0,0,0,0,0,0,0,0,0,0,0,0,0,0,0],[0,0,0,0,0,0,0,0,0,0,0,0,0,0,0,0,0,0,0,0],[0,0,0,0,0,0,0,0,0,0,0,0,0,0,0,1,0,0,0,0],[0,0,0,0,0,0,0,1,0,0,0,0,0,0,1,0,0,0,0,0],[0,0,0,0,0,0,0,1,0,0,0,0,0,0,0,0,0,0,0,0],[0,0,0,0,0,0,0,0,1,0,1,0,0,0,0,0,0,0,0,0],[0,0,0,0,0,0,0,0,0,0,0,0,1,0,0,1,0,0,0,0],[0,0,0,0,0,0,0,0,0,0,0,0,0,0,1,0,0,0,0,0],[0,0,0,0,0,0,0,0,0,0,0,0,0,0,0,0,0,0,0,0],[0,0,0,0,0,0,0,0,0,0,0,0,0,0,0,0,0,0,0,0],[0,0,0,0,0,0,0,0,0,0,0,0,0,0,0,0,0,0,0,0],[0,0,0,0,0,0,0,0,0,0,0,0,0,0,0,0,1,0,0,0],[0,0,0,0,0,1,0,1,0,0,0,0,0,0,0,0,0,0,0,0],[0,0,0,0,0,0,1,0,0,0,0,0,0,1,0,0,0,0,0,0],[0,1,0,0,0,0,0,0,0,0,0,1,0,0,0,0,0,0,0,0],[0,0,0,0,0,0,0,0,0,0,0,0,0,0,0,0,0,0,0,0],[0,0,0,0,0,0,1,0,0,0,0,1,0,0,0,0,0,0,0,0],[0,0,0,0,0,0,0,0,0,0,1,0,0,0,0,1,0,0,0,0],[0,0,0,0,0,0,0,0,0,0,0,0,0,0,0,0,0,1,0,0],[0,1,0,0,0,0,0,0,0,0,0,0,0,0,0,0,0,0,0,0],[0,0,0,1,0,0,0,0,1,0,0,0,0,0,0,0,0,0,0,0],[0,0,0,0,0,0,0,0,0,0,0,0,0,0,0,0,0,0,0,0],[0,0,0,1,0,0,0,0,0,0,0,0,0,0,0,0,0,0,0,0],[0,1,0,0,0,0,0,0,0,0,1,0,0,0,0,0,0,0,0,0],[0,1,0,0,0,0,0,1,0,0,0,0,0,0,0,0,0,0,0,0],[0,0,0,0,0,0,0,0,0,0,0,0,0,0,0,0,0,0,0,0],[0,0,0,0,0,0,0,0,0,0,0,0,0,0,0,1,0,0,0,0],[0,0,0,0,0,0,1,0,0,0,0,0,0,0,0,0,0,0,0,0],[0,0,0,0,0,0,0,1,0,0,0,0,0,0,1,0,0,0,0,0],[0,0,0,1,0,0,0,0,0,0,0,0,0,0,0,0,0,0,0,0],[0,0,0,0,1,0,0,0,0,0,0,0,0,0,0,0,0,0,0,0],[0,0,0,1,0,0,0,0,0,0,1,0,0,0,0,0,0,0,0,0],[0,0,0,0,1,0,0,0,0,0,0,0,1,0,0,0,0,0,0,0],[0,0,0,0,0,0,0,0,0,0,0,0,0,0,0,0,1,0,0,0],[0,0,0,0,0,0,0,0,0,0,0,0,0,0,0,0,0,0,1,0],[0,0,0,0,0,0,0,1,0,0,1,0,0,0,0,0,0,0,0,0],[0,0,0,0,1,0,0,0,0,0,0,0,0,0,0,0,0,0,0,0],[0,0,0,0,0,0,0,0,0,0,0,0,0,0,0,0,0,0,1,0],[0,0,0,0,1,0,0,0,0,0,0,0,0,0,0,0,0,0,1,0],[0,0,0,0,0,0,0,0,1,0,0,1,0,0,0,0,0,0,0,0],[0,0,0,0,0,0,0,0,0,0,0,0,0,0,0,0,0,0,0,0],[0,0,0,0,0,0,0,0,0,0,0,1,0,0,0,0,0,0,0,0],[0,0,0,0,0,0,0,0,0,0,0,0,0,0,0,0,0,0,0,0],[0,0,0,0,0,0,0,0,0,0,0,0,1,0,0,0,0,0,1,0],[0,0,0,0,0,0,0,0,0,0,0,0,0,0,0,0,0,0,0,0],[0,0,1,0,0,1,0,0,0,0,0,0,0,0,0,0,0,0,0,0],[0,0,0,0,0,0,1,0,0,0,0,0,0,0,0,0,0,0,0,0],[0,0,0,0,0,0,0,0,0,0,0,0,0,0,0,0,0,0,1,0],[0,1,0,0,0,0,0,0,0,0,0,0,0,0,0,0,0,0,0,0],[0,0,0,0,0,0,0,0,0,0,0,0,0,1,0,0,0,0,0,0],[0,0,0,0,0,0,0,0,0,0,0,0,0,1,0,0,0,0,0,0],[0,0,0,0,0,0,0,0,0,0,0,0,0,0,0,0,1,0,0,0],[0,0,0,0,0,0,0,0,0,0,0,0,0,0,0,0,0,0,0,0],[0,0,0,0,0,0,0,0,0,0,0,0,0,0,0,0,0,0,0,0],[0,0,0,0,0,0,0,0,0,0,0,0,0,0,0,0,0,0,0,0],[0,0,0,0,0,0,0,0,0,0,1,0,0,0,0,0,0,0,1,0],[0,0,0,0,0,0,0,0,0,0,0,0,0,0,0,0,0,0,0,0],[0,0,0,0,0,0,0,0,0,0,0,0,0,0,0,0,0,0,0,0],[0,0,0,0,0,0,0,0,0,0,1,0,0,0,0,0,1,0,0,0],[0,0,0,0,0,0,0,0,0,0,0,0,0,0,0,0,0,0,0,0],[0,0,0,0,0,0,0,0,0,0,0,0,0,0,0,0,0,0,0,0],[0,0,0,0,0,0,0,0,0,0,0,0,0,0,0,0,0,0,0,0],[0,0,0,0,0,0,0,0,0,1,0,0,0,0,0,0,0,0,0,0],[0,0,0,0,0,0,0,0,0,0,0,0,0,0,1,0,0,0,0,0],[0,0,0,0,0,0,0,0,0,1,0,0,0,0,1,0,0,0,0,0],[0,0,0,0,0,0,0,0,0,0,0,0,0,0,0,0,0,0,0,0],[0,0,1,0,0,0,0,0,0,0,0,0,0,0,0,1,0,0,0,0],[0,0,0,0,0,0,0,0,0,0,0,0,0,0,0,0,0,0,0,0],[0,0,0,0,0,0,0,0,0,0,0,0,0,0,0,0,0,0,0,0],[0,0,1,0,0,1,0,0,0,0,0,0,0,0,0,0,0,0,0,0]],
        "lengthBlock": [20,20,20,20,21,22,21,22,22,21,20,20,20,21,22,22,22,20,22,22,21,21,22,20,21,22,22,20,21,21,22,21,21,22,22,21,21,22,21,21,22,22,20,21,20,22,20,22,21,21,21,21,21,21,20,20,20,22,20,20,22,20,20,20,21,21,22,20,22,20,20,22],
        "presentationOrder": [[3,6,2,9,11,17,13,10,16,5,8,19,1,7,15,14,20,18,4,12],[5,13,9,7,4,20,14,1,6,19,11,10,3,2,15,8,12,18,16,17],[11,13,2,5,3,1,12,10,9,4,19,14,8,18,16,20,17,6,7,15],[2,10,20,17,15,11,9,14,19,13,16,7,1,5,8,12,3,18,6,4],[18,12,11,17,2,6,3,19,1,5,13,8,14,16,10,4,9,20,15,7],[14,9,8,5,6,1,10,2,19,3,18,13,15,16,4,12,17,20,11,7],[17,1,18,10,8,4,11,15,7,6,13,14,9,12,19,16,5,3,2,20],[10,9,17,7,2,15,14,12,8,11,19,13,18,4,1,20,3,16,5,6],[5,17,16,3,6,20,19,9,14,10,4,11,8,12,1,15,13,18,2,7],[1,20,12,13,5,18,10,16,4,14,2,3,17,19,11,7,9,6,8,15],[12,1,2,4,9,13,10,20,15,7,14,18,3,8,6,19,11,5,16,17],[2,15,12,6,13,7,9,1,5,16,11,19,14,20,3,17,10,4,18,8],[1,5,20,7,10,19,14,8,4,2,11,12,17,18,6,3,9,13,15,16],[2,9,8,12,13,10,6,18,4,20,5,7,3,19,16,14,17,11,15,1],[12,15,5,9,20,1,7,6,11,19,8,10,16,14,18,2,4,17,3,13],[3,9,5,10,19,11,18,2,20,17,12,8,6,4,7,14,1,13,15,16],[11,13,19,6,3,18,15,4,2,17,8,14,12,7,20,9,5,10,1,16],[9,6,19,3,1,17,16,12,14,8,4,10,18,13,20,15,11,7,5,2],[3,7,5,11,18,15,19,12,1,10,9,16,20,13,8,2,17,14,6,4],[19,9,16,15,11,17,3,5,14,20,4,12,2,1,6,18,13,10,8,7],[3,16,1,13,12,6,5,7,9,4,8,10,2,15,17,20,19,11,14,18],[20,7,11,3,12,16,1,19,4,18,2,5,10,8,6,17,9,14,15,13],[4,14,18,2,8,15,3,16,9,11,20,1,10,12,6,13,17,19,5,7],[16,13,11,18,1,19,4,8,17,14,9,12,10,7,3,20,6,15,5,2],[13,8,3,5,12,9,20,19,4,14,10,18,1,11,16,6,15,2,7,17],[6,13,16,4,15,18,8,1,10,17,19,9,7,5,14,3,2,12,11,20],[15,5,17,18,20,7,10,16,13,14,8,6,9,4,12,19,1,3,11,2],[8,10,7,12,14,6,3,13,9,17,2,19,11,16,1,4,15,5,18,20],[5,19,14,6,12,2,7,8,11,16,18,10,3,13,4,17,15,20,1,9],[14,6,20,7,13,4,11,18,1,2,19,15,17,9,5,3,8,10,12,16],[14,5,2,1,17,10,9,4,8,7,20,15,11,3,16,13,19,18,6,12],[17,13,16,20,9,15,12,5,11,8,4,14,10,2,19,7,6,18,3,1],[2,12,15,17,20,16,9,1,4,13,6,14,11,19,8,10,5,7,18,3],[20,8,12,9,19,3,18,14,13,5,6,16,1,2,17,11,7,4,10,15],[13,17,11,3,9,5,18,10,19,6,16,1,15,7,2,4,20,14,8,12],[14,11,7,4,15,9,10,5,12,3,13,2,18,20,6,19,16,8,17,1],[7,12,2,18,19,3,4,9,11,6,13,17,20,8,15,1,14,16,5,10],[6,12,8,15,9,4,17,11,2,16,1,20,7,18,10,3,19,5,14,13],[5,18,12,1,7,17,15,2,11,4,10,14,19,6,13,3,8,9,20,16],[20,8,12,10,7,17,19,1,15,3,14,2,5,11,18,9,16,4,6,13],[12,3,15,9,1,20,11,19,8,13,17,6,16,4,2,14,18,7,10,5],[18,20,7,6,8,9,5,13,19,1,3,2,10,4,12,15,11,17,16,14],[5,17,6,4,11,14,3,9,2,16,18,1,20,13,10,12,19,7,15,8],[13,14,6,18,15,7,20,12,5,1,8,17,16,10,19,9,3,4,11,2],[7,20,14,11,17,15,12,9,4,8,19,16,2,5,1,18,6,13,10,3],[15,17,9,5,10,1,12,14,18,7,3,6,4,8,13,19,2,11,16,20],[20,13,11,12,18,8,7,16,5,9,19,3,17,4,10,6,15,1,2,14],[1,13,8,16,7,15,3,14,17,6,5,2,18,19,9,10,12,11,20,4],[4,8,16,1,13,20,3,15,12,7,5,9,11,18,19,14,17,10,2,6],[16,12,17,10,6,15,14,11,13,8,5,4,9,18,7,3,1,20,19,2],[17,19,14,20,4,3,18,16,11,15,8,6,2,5,9,1,12,7,13,10],[20,2,11,1,13,5,9,10,8,16,15,3,4,14,12,6,18,7,19,17],[11,4,20,13,17,15,19,1,14,2,12,7,18,16,10,6,5,9,3,8],[1,15,4,7,20,5,3,16,9,11,8,2,6,14,10,17,18,19,12,13],[17,12,9,18,14,2,13,6,19,15,20,3,11,1,8,7,16,10,4,5],[3,6,12,17,10,18,14,15,9,8,19,16,1,20,13,4,11,7,2,5],[6,13,11,9,5,4,18,19,14,10,3,15,1,17,16,2,12,8,20,7],[10,9,16,7,6,1,2,18,5,13,14,15,20,3,19,17,12,11,4,8],[15,14,11,16,2,19,13,5,17,8,4,18,10,9,12,3,7,1,20,6],[16,3,8,12,5,11,20,14,2,19,1,17,7,15,18,4,10,13,9,6],[20,16,18,12,19,1,9,10,13,3,5,4,14,15,7,11,8,6,17,2],[10,5,6,14,20,18,17,1,2,12,11,15,3,9,7,13,16,4,8,19],[8,3,12,1,10,9,14,18,20,16,15,2,19,5,17,6,11,13,4,7],[12,10,15,13,6,5,18,7,14,19,2,1,8,3,9,11,4,17,16,20],[2,9,10,19,5,4,6,3,17,11,12,20,7,8,18,15,14,13,16,1],[17,2,14,4,1,20,16,19,6,9,7,8,12,11,3,18,10,5,15,13],[19,15,18,8,9,17,20,4,7,10,11,2,6,14,5,12,1,16,3,13],[20,16,9,14,7,13,6,5,12,3,18,19,4,15,17,11,8,1,2,10],[11,1,16,13,3,18,12,15,20,7,19,17,14,2,5,4,6,9,10,8],[8,20,5,14,17,9,1,18,19,7,11,12,10,16,15,2,13,3,4,6],[18,14,1,10,20,16,6,2,5,9,12,19,15,17,4,13,7,3,8,11],[19,4,10,16,8,3,15,11,7,5,20,14,18,6,9,17,13,2,12,1]]
    },
    "dir": {
        "output": "C:\\Users\\filip\\Documents\\GitHub\\VB_localizer\\output",
        "outputSubject": "C:\\Users\\filip\\Documents\\GitHub\\VB_localizer\\output\\source\\sub-666\\ses-666"
    },
    "extraColumns": [
        "direction",
        "target",
        "event",
        "block",
        "keyName"
    ],
    "eyeTracker": {
        "AverageCalibrationError": [],
        "CalibrationDistance": "",
        "CalibrationPosition": "",
        "CalibrationType": "HV5",
        "Manufacturer": "",
        "ManufacturersModelName": "",
        "MaximalCalibrationError": [],
        "PupilPositionType": "",
        "RawDataFilters": [],
        "RawSamples": [],
        "SamplingFrequency": [],
        "SoftwareVersions": "",
        "do": false
    },
    "fileName": {
        "base": "sub-666_ses-666_task-visualLocalizer",
        "datasetDescription": "C:\\Users\\filip\\Documents\\GitHub\\VB_localizer\\output\\dataset_description.json",
        "date": "202108160842",
        "dateFormat": "yyyymmddHHMM",
        "events": "sub-666_ses-666_task-visualLocalizer_acq-0p75mmEvTr2p18_run-666_events_date-202108160842.tsv",
        "modality": "func",
        "pattern": "%03.0f",
        "stim": "sub-666_ses-666_task-visualLocalizer_acq-0p75mmEvTr2p18_run-666_stim_date-202108160842.tsv",
        "suffix": {
            "acquisition": "_acq-0p75mmEvTr2p18",
            "contrastEnhancement": "",
            "echo": "",
            "phaseEncodingDirection": "",
            "reconstruction": "",
            "recording": "",
            "run": "_run-666"
        },
        "task": "visualLocalizer",
        "zeroPadding": 3
    },
    "fixation": {
        "color": [255,255,255],
        "lineWidthPix": 3,
        "type": "cross",
        "width": 0.25,
        "xDisplacement": 0,
        "yDisplacement": 0,
        "widthPix": 32.0176838375294,
        "xDisplacementPix": 0,
        "yDisplacementPix": 0,
        "xCoords": [-16.0088419187647,16.0088419187647,0,0],
        "yCoords": [0,0,-16.0088419187647,16.0088419187647],
        "allCoords": [[-16.0088419187647,16.0088419187647,0,0],[0,0,-16.0088419187647,16.0088419187647]]
    },
    "keyboard": {
        "escapeKey": "ESCAPE",
        "keyboard": [],
        "responseBox": [],
        "responseKey": [
            "r",
            "g",
            "y",
            "b",
            "d",
            "n",
            "z",
            "e",
            "t"
        ]
    },
    "mri": {
        "triggerKey": "t",
        "triggerNb": 0,
        "repetitionTime": 1.8
    },
    "pacedByTriggers": {
        "do": false
    },
    "screen": {
        "monitorDistance": 95,
        "monitorWidth": 25,
        "resolution": [[],[],[]],
        "idx": 0,
        "oldResolution": {
            "width": 1920,
            "height": 1080,
            "pixelSize": 32,
            "hz": 60
        },
        "win": 10,
        "winRect": [0,0,1920,1080],
        "winWidth": 1920,
        "winHeight": 1080,
        "center": [960,540],
        "FOV": 14.99171527945972,
        "ppd": 128.0707353501176,
        "ifi": 0.01666666666666667,
        "monitorRefresh": 60
    },
    "skipSyncTests": 0,
    "software": {
        "os": "PCWIN64",
        "name": "Psychtoolbox",
        "RRID": "SCR_002881",
        "version": "3.0.17",
        "runsOn": "Matlab - 9.10.0.1602886 (R2021a)"
    },
    "stimuli": {
        "list": [
            "img1.png",
            "img2.png",
            "img3.png",
            "img4.png",
            "img5.png",
            "img6.png",
            "img7.png",
            "img8.png",
            "img9.png",
            "img10.png",
            "img11.png",
            "img12.png",
            "img13.png",
            "img14.png",
            "img15.png",
            "img16.png",
            "img17.png",
            "img18.png",
            "img19.png",
            "img20.png"
        ]
    },
    "subject": {
        "askGrpSess": [true,true],
        "runNb": 666,
        "sessionNb": 666,
        "subjectGrp": "ctrl",
        "subjectNb": 666
    },
    "suffix": {
        "acquisition": "0p75mmEvTr2p18",
        "contrastEnhancement": [],
        "echo": [],
        "phaseEncodingDirection": [],
        "reconstruction": [],
        "recording": []
    },
    "target": {
        "maxNbPerBlock": 2,
        "duration": 0.1,
        "type": "repetition"
    },
    "task": {
        "name": "visual localizer",
        "instruction": "TASK - Detect the repetition \\n \\n\\n"
    },
    "testingDevice": "mri",
    "text": {
        "color": [255,255,255],
        "font": "Courier New",
        "size": 18,
        "style": 1
    },
    "timing": {
        "eventDuration": 2,
        "IBI": 0,
        "ISI": 0.01,
        "onsetDelay": 0,
        "endDelay": 3.6
    },
    "useGUI": false,
    "verbose": 1,
    "experimentStart": 341446.2895264
}