{
    "Instructions": "",
    "RepetitionTime": 1.8,
    "SliceTiming": [],
    "TaskDescription": "",
    "TaskName": "visual Localizer",
    "aperture": {
        "type": "none"
    },
    "audio": {
        "do": false
    },
    "bids": {
        "MRI": {
            "Instructions": "Detect the repeated stimulus",
            "TaskDescription": []
        },
        "beh": {
            "Instructions": [],
            "TaskName": "visual Localizer"
        },
        "datasetDescription": {
            "Acknowledgements": "",
            "Authors": [""],
            "BIDSVersion": "",
            "DatasetDOI": "",
            "Funding": [""],
            "HowToAcknowledge": "",
            "License": "",
            "Name": "",
            "ReferencesAndLinks": [""]
        },
        "eeg": {
            "EEGReference": "",
            "Instructions": "",
            "PowerLineFrequency": 50,
            "SamplingFrequency": [],
            "SoftwareFilters": "n/a",
            "TaskName": "visual Localizer"
        },
        "ieeg": {
            "Instructions": "",
            "PowerLineFrequency": 50,
            "SamplingFrequency": [],
            "SoftwareFilters": "n/a",
            "TaskName": "visual Localizer",
            "iEEGReference": ""
        },
        "meg": {
            "DewarPosition": [],
            "DigitizedHeadPoints": [],
            "DigitizedLandmarks": [],
            "Instructions": "",
            "PowerLineFrequency": 50,
            "SamplingFrequency": [],
            "SoftwareFilters": "n/a",
            "TaskName": "visual Localizer"
        },
        "mri": {
            "Instructions": "",
            "RepetitionTime": 1.8,
            "SliceTiming": [],
            "TaskDescription": "",
            "TaskName": "visual Localizer"
        }
    },
    "color": {
        "background": [0,0,0],
        "black": [0,0,0],
        "grey": [127.5,127.5,127.5],
        "red": [255,0,0],
        "white": [255,255,255]
    },
    "debug": {
        "do": true,
        "showMouse": false,
        "smallWin": false,
        "transpWin": false
    },
    "design": {
        "localizer": "VWFA",
        "names": [
            "fw",
            "sfw",
            "bw",
            "sbw",
            "ld",
            "sld"
        ],
        "nbRepetitions": 12,
        "nbEventsPerBlock": 20,
        "blockNames": [
            "fw",
            "sfw",
            "bw",
            "sbw",
            "ld",
            "sld",
            "fw",
            "sfw",
            "bw",
            "sbw",
            "ld",
            "sld",
            "fw",
            "sfw",
            "bw",
            "sbw",
            "ld",
            "sld",
            "fw",
            "sfw",
            "bw",
            "sbw",
            "ld",
            "sld",
            "fw",
            "sfw",
            "bw",
            "sbw",
            "ld",
            "sld",
            "fw",
            "sfw",
            "bw",
            "sbw",
            "ld",
            "sld",
            "fw",
            "sfw",
            "bw",
            "sbw",
            "ld",
            "sld",
            "fw",
            "sfw",
            "bw",
            "sbw",
            "ld",
            "sld",
            "fw",
            "sfw",
            "bw",
            "sbw",
            "ld",
            "sld",
            "fw",
            "sfw",
            "bw",
            "sbw",
            "ld",
            "sld",
            "fw",
            "sfw",
            "bw",
            "sbw",
            "ld",
            "sld",
            "fw",
            "sfw",
            "bw",
            "sbw",
            "ld",
            "sld"
        ],
        "nbBlocks": 72,
        "repetitionTargets": [[0,0,0,0,0,0,0,0,0,0,0,0,0,0,1,0,0,0,0,0],[0,0,0,0,0,0,0,0,0,0,1,0,0,0,0,0,0,0,0,0],[0,0,0,0,0,0,0,0,0,0,0,0,0,0,0,0,0,1,0,0],[0,0,0,0,0,0,0,0,0,0,0,0,0,0,0,0,0,0,0,0],[0,0,0,0,0,0,0,0,0,0,0,0,0,0,0,0,0,0,0,0],[0,0,0,0,0,0,0,0,0,0,0,0,0,0,0,0,0,0,1,0],[0,0,0,0,1,0,0,0,0,0,0,0,0,0,0,0,0,0,0,0],[0,0,0,0,0,0,0,0,0,0,0,0,0,1,0,0,0,0,0,0],[0,0,0,0,0,1,0,0,0,0,0,0,0,0,0,1,0,0,0,0],[0,0,0,0,0,0,0,0,0,0,0,0,0,0,0,0,0,0,0,0],[0,0,0,0,1,0,1,0,0,0,0,0,0,0,0,0,0,0,0,0],[0,0,0,1,0,0,0,0,0,0,0,0,0,0,0,0,0,0,0,0],[0,1,0,0,0,0,0,0,0,0,0,0,1,0,0,0,0,0,0,0],[0,0,0,0,0,0,0,1,0,0,0,0,0,0,0,0,0,1,0,0],[0,0,0,0,0,0,0,0,0,0,0,0,0,0,0,0,0,0,0,0],[0,0,0,0,0,0,0,1,0,0,0,0,0,0,0,0,0,0,1,0],[0,0,0,0,1,0,0,0,0,0,0,0,0,0,0,1,0,0,0,0],[0,0,0,0,0,1,0,0,0,0,0,0,0,0,1,0,0,0,0,0],[0,0,0,0,0,0,0,0,0,0,0,0,0,0,0,0,0,0,0,0],[0,0,0,0,1,0,0,0,0,0,0,0,0,0,0,0,1,0,0,0],[0,0,0,0,0,0,0,0,0,0,0,0,0,0,0,0,0,0,0,0],[0,0,0,0,0,0,0,0,0,0,0,0,0,0,0,0,0,0,0,0],[0,0,0,0,0,0,0,0,0,0,0,0,0,0,0,0,0,1,0,0],[0,0,0,0,0,0,0,0,0,0,0,0,0,0,0,0,0,0,0,0],[0,1,0,0,1,0,0,0,0,0,0,0,0,0,0,0,0,0,0,0],[0,0,0,0,0,0,0,0,0,0,0,0,0,0,0,0,0,0,0,0],[0,0,0,0,0,0,0,0,0,0,0,0,0,1,0,0,0,0,0,0],[0,0,0,0,0,0,0,0,0,0,0,0,0,0,0,1,0,0,0,0],[0,0,0,0,1,0,0,0,0,0,0,0,0,0,0,0,1,0,0,0],[0,0,0,0,0,0,0,0,0,0,1,0,0,0,0,0,0,0,0,0],[0,0,0,0,0,0,0,0,0,1,0,0,0,0,0,0,0,0,0,0],[0,0,0,0,0,0,1,0,0,0,1,0,0,0,0,0,0,0,0,0],[0,1,0,0,0,0,0,0,0,0,0,0,0,0,0,0,0,1,0,0],[0,0,0,0,0,1,0,0,0,0,0,0,0,0,0,0,0,0,0,0],[0,0,0,0,0,0,0,0,0,1,0,0,0,0,0,0,0,0,0,0],[0,0,0,0,0,0,0,1,0,0,0,0,1,0,0,0,0,0,0,0],[0,0,0,0,0,0,0,0,1,0,0,0,0,0,0,0,0,0,0,0],[0,0,0,0,0,0,0,0,0,0,0,0,0,0,0,0,0,0,0,0],[0,0,0,0,0,0,0,0,0,0,0,0,0,0,0,0,0,0,0,0],[0,1,0,0,0,0,0,0,0,0,0,0,0,0,0,0,0,0,0,0],[0,0,0,0,0,0,0,0,0,0,0,0,0,0,0,0,0,0,0,0],[0,0,0,0,0,0,0,0,0,0,0,0,0,0,0,0,0,0,0,0],[0,0,0,0,0,0,0,0,0,0,0,0,0,0,0,0,0,0,0,0],[0,0,0,0,0,0,0,0,0,0,0,0,0,0,0,0,0,0,0,0],[0,0,0,0,1,0,0,0,0,0,0,0,0,0,0,0,0,0,0,0],[0,0,0,0,0,1,0,0,0,0,0,0,0,0,1,0,0,0,0,0],[0,0,0,0,0,0,0,0,0,0,0,0,0,0,1,0,0,0,0,0],[0,0,1,0,0,0,0,0,0,1,0,0,0,0,0,0,0,0,0,0],[0,0,0,0,0,0,0,0,0,0,0,0,0,0,0,0,0,0,0,0],[0,0,0,0,0,0,0,0,0,0,0,0,0,0,0,0,0,0,0,0],[0,1,0,0,0,0,0,0,1,0,0,0,0,0,0,0,0,0,0,0],[0,0,0,0,0,0,0,0,0,0,0,0,0,0,0,0,0,0,0,0],[0,0,0,0,0,0,0,0,0,0,0,0,0,0,0,0,0,0,0,0],[0,0,0,0,0,0,0,0,0,0,0,0,0,0,0,0,0,0,0,0],[0,0,0,0,0,0,0,0,0,0,1,0,0,0,0,0,1,0,0,0],[0,0,0,0,0,0,0,0,0,0,0,0,1,0,1,0,0,0,0,0],[0,0,0,0,0,0,0,0,0,0,1,0,0,0,0,0,0,0,0,0],[0,1,0,0,0,0,0,0,0,0,0,1,0,0,0,0,0,0,0,0],[0,0,0,0,0,0,0,0,0,0,0,0,0,0,0,0,1,0,0,0],[0,0,0,0,0,0,0,0,0,0,0,0,0,0,0,0,0,0,0,0],[0,0,0,0,0,0,0,0,0,0,0,0,0,0,0,0,0,0,0,0],[0,0,0,0,0,0,0,0,0,0,0,0,0,0,0,0,0,1,0,0],[0,0,0,0,0,0,0,0,0,0,0,0,0,0,0,0,0,0,0,0],[0,0,0,0,0,0,0,0,0,0,1,0,0,0,0,0,0,0,0,0],[0,0,0,0,0,0,0,0,0,0,1,0,0,0,0,1,0,0,0,0],[0,1,0,0,0,0,0,0,0,0,1,0,0,0,0,0,0,0,0,0],[0,0,0,0,0,0,0,0,0,0,0,0,0,0,0,0,1,0,1,0],[0,0,0,0,0,0,0,0,0,0,0,0,0,0,1,0,0,0,0,0],[0,0,0,1,0,0,0,0,0,0,0,0,0,0,0,1,0,0,0,0],[0,0,0,0,0,0,0,0,1,0,0,0,0,0,0,1,0,0,0,0],[0,0,0,0,0,0,0,0,0,0,0,0,0,0,0,0,0,0,0,0],[0,0,0,0,0,0,0,0,1,0,0,0,0,0,0,0,0,0,0,0]],
        "lengthBlock": [21,21,21,20,20,21,21,21,22,20,22,21,22,22,20,22,22,22,20,22,20,20,21,20,22,20,21,21,22,21,21,22,22,21,21,22,21,20,20,21,20,20,20,20,21,22,21,22,20,20,22,20,20,20,22,22,21,22,21,20,20,21,20,21,22,22,22,21,22,22,20,21],
        "presMatrix": [[3,11,8,10,18,6,16,15,4,12,13,9,2,14,19,19,20,1,17,7,5,0],[10,12,8,6,9,19,1,18,4,5,11,11,3,20,2,7,17,14,15,13,16,0],[2,8,7,9,3,12,20,4,15,5,17,16,13,6,18,1,14,11,11,19,10,0],[12,7,19,10,20,3,9,13,18,5,17,4,1,6,11,8,15,2,14,16,0,0],[4,6,15,19,5,12,9,11,10,18,1,7,8,14,20,2,16,3,13,17,0,0],[20,1,3,14,2,19,13,8,6,4,5,7,11,17,10,12,16,15,9,9,18,0],[7,3,16,14,12,12,17,11,5,8,19,2,10,20,13,1,9,15,4,6,18,0],[9,12,8,15,5,16,2,4,18,13,20,14,10,7,7,19,11,17,3,1,6,0],[13,19,12,7,1,17,17,10,6,9,5,15,18,3,8,2,4,4,14,16,11,20],[13,7,10,20,8,9,2,12,17,18,19,6,1,14,4,3,15,5,16,11,0,0],[8,1,12,3,2,2,6,14,14,16,15,4,5,9,18,11,17,10,13,7,20,19],[18,19,1,14,14,7,2,3,4,15,9,11,8,13,20,10,6,16,5,12,17,0],[5,3,3,10,16,1,6,18,11,14,20,15,13,7,7,19,4,12,17,9,2,8],[15,20,17,16,14,4,10,18,18,3,2,6,9,13,19,12,8,1,11,11,5,7],[8,4,10,1,17,18,12,3,13,14,20,15,16,2,9,19,6,7,5,11,0,0],[1,11,13,4,19,17,3,18,18,9,2,6,7,15,20,5,10,16,12,14,14,8],[17,1,15,8,6,6,11,13,4,7,12,19,14,5,3,18,9,9,10,20,2,16],[15,17,2,7,3,4,4,13,5,6,18,16,10,14,1,19,19,8,20,9,12,11],[6,8,14,16,9,13,11,5,3,18,12,1,2,4,15,7,10,20,17,19,0,0],[19,9,6,18,2,2,14,15,16,8,10,20,13,3,7,11,12,1,1,4,5,17],[10,16,6,4,1,13,5,11,15,14,7,3,2,8,17,12,19,18,20,9,0,0],[18,19,2,5,13,1,4,9,14,10,12,17,15,7,3,8,16,11,6,20,0,0],[10,3,13,12,16,14,8,6,18,5,19,9,7,17,15,11,4,20,20,1,2,0],[3,9,10,16,7,4,17,13,15,11,14,2,20,19,18,1,12,8,5,6,0,0],[14,20,20,10,2,16,16,6,4,17,13,15,12,9,1,19,11,8,3,18,7,5],[6,5,10,9,2,12,18,20,16,1,19,7,4,15,3,13,17,14,8,11,0,0],[6,13,19,14,18,10,5,8,16,12,15,11,2,20,20,1,17,7,3,9,4,0],[16,2,15,11,3,14,4,7,18,10,9,5,12,13,6,17,17,19,20,1,8,0],[17,15,19,2,7,7,14,10,16,9,6,3,13,5,18,1,20,8,8,4,11,12],[2,19,16,6,9,13,15,11,12,3,1,1,17,5,7,20,4,10,8,18,14,0],[8,18,13,17,4,7,16,12,6,14,14,1,10,15,20,11,9,2,3,5,19,0],[5,13,16,7,12,4,17,17,15,1,18,20,20,8,14,11,2,3,9,6,19,10],[20,1,1,2,4,15,8,11,9,12,14,6,18,17,10,3,19,5,16,16,7,13],[18,7,12,20,14,19,19,10,6,16,8,17,5,1,3,11,2,13,15,9,4,0],[19,6,2,7,1,13,17,16,15,10,10,3,9,4,8,20,11,12,14,18,5,0],[9,5,17,13,16,2,10,7,7,11,1,6,15,19,19,18,14,12,8,4,3,20],[17,13,14,6,20,10,2,8,4,4,16,12,5,9,15,19,1,11,3,7,18,0],[2,15,18,10,12,19,7,3,13,17,11,8,20,9,1,16,6,4,14,5,0,0],[11,10,12,17,8,19,7,20,1,3,16,5,15,13,18,14,6,4,2,9,0,0],[3,12,12,19,6,17,2,5,16,11,18,13,7,20,15,4,8,9,1,10,14,0],[19,2,6,3,9,4,14,7,11,1,16,8,10,15,17,18,13,12,20,5,0,0],[11,14,3,13,8,9,10,12,16,7,2,19,4,18,15,1,6,5,20,17,0,0],[1,12,4,14,17,2,13,19,18,6,16,9,10,5,11,15,8,20,3,7,0,0],[13,1,11,4,20,8,9,17,15,19,16,18,3,2,5,10,14,7,12,6,0,0],[5,17,19,1,18,18,3,7,20,15,13,11,14,16,12,9,6,10,2,4,8,0],[10,5,11,7,15,12,12,1,6,2,9,13,19,17,18,20,20,8,16,3,14,4],[19,14,8,11,17,9,12,16,1,4,3,18,20,10,2,2,7,15,5,6,13,0],[13,11,4,4,1,20,18,17,16,8,9,9,19,12,6,5,7,2,15,14,10,3],[11,5,4,2,16,6,13,12,7,20,1,15,18,10,19,17,14,8,9,3,0,0],[2,10,3,20,5,7,8,13,6,1,17,4,16,12,19,18,14,9,11,15,0,0],[20,10,10,9,11,17,2,3,13,19,19,18,5,16,7,12,4,15,14,1,6,8],[6,7,10,16,11,12,5,2,19,17,4,20,8,15,13,9,3,18,14,1,0,0],[13,4,8,14,11,5,12,10,15,20,1,18,3,6,17,19,7,9,16,2,0,0],[11,18,15,13,10,2,9,12,6,14,20,16,17,1,3,8,19,4,7,5,0,0],[3,12,2,9,10,19,4,11,18,8,5,5,7,17,16,1,13,15,15,14,6,20],[18,10,12,17,4,7,3,11,1,20,14,2,16,16,19,8,8,9,13,6,15,5],[10,17,14,1,12,11,13,4,15,5,19,19,2,7,3,16,18,6,8,20,9,0],[7,8,8,15,4,3,11,16,19,9,20,6,5,5,2,13,18,12,1,14,10,17],[1,2,7,14,16,13,3,15,5,10,9,20,17,6,11,19,8,8,12,18,4,0],[15,9,4,11,2,10,14,17,19,20,6,8,5,13,1,3,18,7,16,12,0,0],[3,9,14,4,1,11,12,6,15,17,19,13,2,7,5,10,16,20,8,18,0,0],[19,20,18,3,9,16,5,15,2,14,11,6,10,4,12,17,13,8,8,7,1,0],[17,8,16,1,9,14,4,3,2,12,11,15,13,10,7,19,6,18,5,20,0,0],[8,9,20,14,19,4,18,11,1,10,7,7,12,16,17,3,15,13,6,5,2,0],[13,12,4,16,18,6,14,11,19,8,3,3,17,5,15,9,2,2,1,10,7,20],[3,5,5,9,4,20,12,6,7,13,18,17,17,2,1,11,19,10,14,15,8,16],[14,12,17,1,4,13,7,5,2,9,20,19,6,3,10,11,15,15,8,16,16,18],[1,3,20,16,7,2,18,10,9,5,6,13,17,12,11,11,14,15,8,4,19,0],[8,12,13,1,1,15,10,6,19,14,17,16,11,7,18,2,20,20,4,5,9,3],[14,5,8,7,4,12,19,16,18,18,15,11,17,6,20,2,1,1,3,9,10,13],[8,2,5,16,4,3,20,9,7,13,15,6,17,12,10,14,1,19,18,11,0,0],[14,13,6,2,11,4,7,3,8,8,5,12,15,20,10,18,19,16,17,9,1,0]],
        "targetMatrix": [[0,0,0,0,0,0,0,0,0,0,0,0,0,0,0,1,0,0,0,0,0,0],[0,0,0,0,0,0,0,0,0,0,0,1,0,0,0,0,0,0,0,0,0,0],[0,0,0,0,0,0,0,0,0,0,0,0,0,0,0,0,0,0,1,0,0,0],[0,0,0,0,0,0,0,0,0,0,0,0,0,0,0,0,0,0,0,0,0,0],[0,0,0,0,0,0,0,0,0,0,0,0,0,0,0,0,0,0,0,0,0,0],[0,0,0,0,0,0,0,0,0,0,0,0,0,0,0,0,0,0,0,1,0,0],[0,0,0,0,0,1,0,0,0,0,0,0,0,0,0,0,0,0,0,0,0,0],[0,0,0,0,0,0,0,0,0,0,0,0,0,0,1,0,0,0,0,0,0,0],[0,0,0,0,0,0,1,0,0,0,0,0,0,0,0,0,0,1,0,0,0,0],[0,0,0,0,0,0,0,0,0,0,0,0,0,0,0,0,0,0,0,0,0,0],[0,0,0,0,0,1,0,0,1,0,0,0,0,0,0,0,0,0,0,0,0,0],[0,0,0,0,1,0,0,0,0,0,0,0,0,0,0,0,0,0,0,0,0,0],[0,0,1,0,0,0,0,0,0,0,0,0,0,0,1,0,0,0,0,0,0,0],[0,0,0,0,0,0,0,0,1,0,0,0,0,0,0,0,0,0,0,1,0,0],[0,0,0,0,0,0,0,0,0,0,0,0,0,0,0,0,0,0,0,0,0,0],[0,0,0,0,0,0,0,0,1,0,0,0,0,0,0,0,0,0,0,0,1,0],[0,0,0,0,0,1,0,0,0,0,0,0,0,0,0,0,0,1,0,0,0,0],[0,0,0,0,0,0,1,0,0,0,0,0,0,0,0,0,1,0,0,0,0,0],[0,0,0,0,0,0,0,0,0,0,0,0,0,0,0,0,0,0,0,0,0,0],[0,0,0,0,0,1,0,0,0,0,0,0,0,0,0,0,0,0,1,0,0,0],[0,0,0,0,0,0,0,0,0,0,0,0,0,0,0,0,0,0,0,0,0,0],[0,0,0,0,0,0,0,0,0,0,0,0,0,0,0,0,0,0,0,0,0,0],[0,0,0,0,0,0,0,0,0,0,0,0,0,0,0,0,0,0,1,0,0,0],[0,0,0,0,0,0,0,0,0,0,0,0,0,0,0,0,0,0,0,0,0,0],[0,0,1,0,0,0,1,0,0,0,0,0,0,0,0,0,0,0,0,0,0,0],[0,0,0,0,0,0,0,0,0,0,0,0,0,0,0,0,0,0,0,0,0,0],[0,0,0,0,0,0,0,0,0,0,0,0,0,0,1,0,0,0,0,0,0,0],[0,0,0,0,0,0,0,0,0,0,0,0,0,0,0,0,1,0,0,0,0,0],[0,0,0,0,0,1,0,0,0,0,0,0,0,0,0,0,0,0,1,0,0,0],[0,0,0,0,0,0,0,0,0,0,0,1,0,0,0,0,0,0,0,0,0,0],[0,0,0,0,0,0,0,0,0,0,1,0,0,0,0,0,0,0,0,0,0,0],[0,0,0,0,0,0,0,1,0,0,0,0,1,0,0,0,0,0,0,0,0,0],[0,0,1,0,0,0,0,0,0,0,0,0,0,0,0,0,0,0,0,1,0,0],[0,0,0,0,0,0,1,0,0,0,0,0,0,0,0,0,0,0,0,0,0,0],[0,0,0,0,0,0,0,0,0,0,1,0,0,0,0,0,0,0,0,0,0,0],[0,0,0,0,0,0,0,0,1,0,0,0,0,0,1,0,0,0,0,0,0,0],[0,0,0,0,0,0,0,0,0,1,0,0,0,0,0,0,0,0,0,0,0,0],[0,0,0,0,0,0,0,0,0,0,0,0,0,0,0,0,0,0,0,0,0,0],[0,0,0,0,0,0,0,0,0,0,0,0,0,0,0,0,0,0,0,0,0,0],[0,0,1,0,0,0,0,0,0,0,0,0,0,0,0,0,0,0,0,0,0,0],[0,0,0,0,0,0,0,0,0,0,0,0,0,0,0,0,0,0,0,0,0,0],[0,0,0,0,0,0,0,0,0,0,0,0,0,0,0,0,0,0,0,0,0,0],[0,0,0,0,0,0,0,0,0,0,0,0,0,0,0,0,0,0,0,0,0,0],[0,0,0,0,0,0,0,0,0,0,0,0,0,0,0,0,0,0,0,0,0,0],[0,0,0,0,0,1,0,0,0,0,0,0,0,0,0,0,0,0,0,0,0,0],[0,0,0,0,0,0,1,0,0,0,0,0,0,0,0,0,1,0,0,0,0,0],[0,0,0,0,0,0,0,0,0,0,0,0,0,0,0,1,0,0,0,0,0,0],[0,0,0,1,0,0,0,0,0,0,0,1,0,0,0,0,0,0,0,0,0,0],[0,0,0,0,0,0,0,0,0,0,0,0,0,0,0,0,0,0,0,0,0,0],[0,0,0,0,0,0,0,0,0,0,0,0,0,0,0,0,0,0,0,0,0,0],[0,0,1,0,0,0,0,0,0,0,1,0,0,0,0,0,0,0,0,0,0,0],[0,0,0,0,0,0,0,0,0,0,0,0,0,0,0,0,0,0,0,0,0,0],[0,0,0,0,0,0,0,0,0,0,0,0,0,0,0,0,0,0,0,0,0,0],[0,0,0,0,0,0,0,0,0,0,0,0,0,0,0,0,0,0,0,0,0,0],[0,0,0,0,0,0,0,0,0,0,0,1,0,0,0,0,0,0,1,0,0,0],[0,0,0,0,0,0,0,0,0,0,0,0,0,1,0,0,1,0,0,0,0,0],[0,0,0,0,0,0,0,0,0,0,0,1,0,0,0,0,0,0,0,0,0,0],[0,0,1,0,0,0,0,0,0,0,0,0,0,1,0,0,0,0,0,0,0,0],[0,0,0,0,0,0,0,0,0,0,0,0,0,0,0,0,0,1,0,0,0,0],[0,0,0,0,0,0,0,0,0,0,0,0,0,0,0,0,0,0,0,0,0,0],[0,0,0,0,0,0,0,0,0,0,0,0,0,0,0,0,0,0,0,0,0,0],[0,0,0,0,0,0,0,0,0,0,0,0,0,0,0,0,0,0,1,0,0,0],[0,0,0,0,0,0,0,0,0,0,0,0,0,0,0,0,0,0,0,0,0,0],[0,0,0,0,0,0,0,0,0,0,0,1,0,0,0,0,0,0,0,0,0,0],[0,0,0,0,0,0,0,0,0,0,0,1,0,0,0,0,0,1,0,0,0,0],[0,0,1,0,0,0,0,0,0,0,0,0,1,0,0,0,0,0,0,0,0,0],[0,0,0,0,0,0,0,0,0,0,0,0,0,0,0,0,0,1,0,0,1,0],[0,0,0,0,0,0,0,0,0,0,0,0,0,0,0,1,0,0,0,0,0,0],[0,0,0,0,1,0,0,0,0,0,0,0,0,0,0,0,0,1,0,0,0,0],[0,0,0,0,0,0,0,0,0,1,0,0,0,0,0,0,0,1,0,0,0,0],[0,0,0,0,0,0,0,0,0,0,0,0,0,0,0,0,0,0,0,0,0,0],[0,0,0,0,0,0,0,0,0,1,0,0,0,0,0,0,0,0,0,0,0,0]]
    },
    "dir": {
        "output": "C:\\Users\\filip\\Documents\\GitHub\\VB_localizer\\output",
        "outputSubject": "C:\\Users\\filip\\Documents\\GitHub\\VB_localizer\\output\\source\\sub-666\\ses-666"
    },
    "extraColumns": [
        "image",
        "target",
        "event",
        "block",
        "keyName"
    ],
    "eyeTracker": {
        "AverageCalibrationError": [],
        "CalibrationDistance": "",
        "CalibrationPosition": "",
        "CalibrationType": "HV5",
        "Manufacturer": "",
        "ManufacturersModelName": "",
        "MaximalCalibrationError": [],
        "PupilPositionType": "",
        "RawDataFilters": [],
        "RawSamples": [],
        "SamplingFrequency": [],
        "SoftwareVersions": "",
        "do": false
    },
    "fileName": {
        "base": "sub-666_ses-666_task-visualLocalizer",
        "datasetDescription": "C:\\Users\\filip\\Documents\\GitHub\\VB_localizer\\output\\dataset_description.json",
        "date": "202109011152",
        "dateFormat": "yyyymmddHHMM",
        "events": "sub-666_ses-666_task-visualLocalizer_acq-0p75mmEvTr2p18_run-666_events_date-202109011152.tsv",
        "modality": "func",
        "pattern": "%03.0f",
        "stim": "sub-666_ses-666_task-visualLocalizer_acq-0p75mmEvTr2p18_run-666_stim_date-202109011152.tsv",
        "suffix": {
            "acquisition": "_acq-0p75mmEvTr2p18",
            "contrastEnhancement": "",
            "echo": "",
            "phaseEncodingDirection": "",
            "reconstruction": "",
            "recording": "",
            "run": "_run-666"
        },
        "task": "visualLocalizer",
        "zeroPadding": 3
    },
    "fixation": {
        "color": [255,255,255],
        "lineWidthPix": 3,
        "type": "cross",
        "width": 0.25,
        "xDisplacement": 0,
        "yDisplacement": 0,
        "widthPix": 32.0176838375294,
        "xDisplacementPix": 0,
        "yDisplacementPix": 0,
        "xCoords": [-16.0088419187647,16.0088419187647,0,0],
        "yCoords": [0,0,-16.0088419187647,16.0088419187647],
        "allCoords": [[-16.0088419187647,16.0088419187647,0,0],[0,0,-16.0088419187647,16.0088419187647]]
    },
    "keyboard": {
        "escapeKey": "ESCAPE",
        "keyboard": [],
        "responseBox": [],
        "responseKey": [
            "r",
            "g",
            "y",
            "b",
            "d",
            "n",
            "z",
            "e",
            "t"
        ]
    },
    "mri": {
        "triggerKey": "t",
        "triggerNb": 0,
        "repetitionTime": 1.8
    },
    "pacedByTriggers": {
        "do": false
    },
    "screen": {
        "monitorDistance": 95,
        "monitorWidth": 25,
        "resolution": [[],[],[]],
        "idx": 0,
        "oldResolution": {
            "width": 1920,
            "height": 1080,
            "pixelSize": 32,
            "hz": 60
        },
        "win": 10,
        "winRect": [0,0,1920,1080],
        "winWidth": 1920,
        "winHeight": 1080,
        "center": [960,540],
        "FOV": 14.99171527945972,
        "ppd": 128.0707353501176,
        "ifi": 0.01666666666666667,
        "monitorRefresh": 60
    },
    "skipSyncTests": 0,
    "software": {
        "os": "PCWIN64",
        "name": "Psychtoolbox",
        "RRID": "SCR_002881",
        "version": "3.0.17",
        "runsOn": "Matlab - 9.10.0.1602886 (R2021a)"
    },
    "stimuli": {
        "list": [
            "img1.png",
            "img2.png",
            "img3.png",
            "img4.png",
            "img5.png",
            "img6.png",
            "img7.png",
            "img8.png",
            "img9.png",
            "img10.png",
            "img11.png",
            "img12.png",
            "img13.png",
            "img14.png",
            "img15.png",
            "img16.png",
            "img17.png",
            "img18.png",
            "img19.png",
            "img20.png"
        ]
    },
    "subject": {
        "askGrpSess": [true,true],
        "runNb": 666,
        "sessionNb": 666,
        "subjectGrp": "ctrl",
        "subjectNb": 666
    },
    "suffix": {
        "acquisition": "0p75mmEvTr2p18",
        "contrastEnhancement": [],
        "echo": [],
        "phaseEncodingDirection": [],
        "reconstruction": [],
        "recording": []
    },
    "target": {
        "maxNbPerBlock": 2,
        "duration": 0.1,
        "type": "repetition"
    },
    "task": {
        "name": "visual localizer",
        "instruction": "TASK - Detect the repetition \\n \\n\\n"
    },
    "testingDevice": "mri",
    "text": {
        "color": [255,255,255],
        "font": "Courier New",
        "size": 18,
        "style": 1
    },
    "timing": {
        "eventDuration": 2,
        "IBI": 0,
        "ISI": 0.01,
        "onsetDelay": 0,
        "endDelay": 3.6
    },
    "useGUI": false,
    "verbose": 0,
    "experimentStart": 656822.7179892
}