{
    "Instructions": "",
    "RepetitionTime": 1.8,
    "SliceTiming": [],
    "TaskDescription": "",
    "TaskName": "visual Localizer",
    "aperture": {
        "type": "none"
    },
    "audio": {
        "do": false
    },
    "bids": {
        "MRI": {
            "Instructions": "Detect the repeated stimulus",
            "TaskDescription": []
        },
        "beh": {
            "Instructions": [],
            "TaskName": "visual Localizer"
        },
        "datasetDescription": {
            "Acknowledgements": "",
            "Authors": [""],
            "BIDSVersion": "",
            "DatasetDOI": "",
            "Funding": [""],
            "HowToAcknowledge": "",
            "License": "",
            "Name": "",
            "ReferencesAndLinks": [""]
        },
        "eeg": {
            "EEGReference": "",
            "Instructions": "",
            "PowerLineFrequency": 50,
            "SamplingFrequency": [],
            "SoftwareFilters": "n/a",
            "TaskName": "visual Localizer"
        },
        "ieeg": {
            "Instructions": "",
            "PowerLineFrequency": 50,
            "SamplingFrequency": [],
            "SoftwareFilters": "n/a",
            "TaskName": "visual Localizer",
            "iEEGReference": ""
        },
        "meg": {
            "DewarPosition": [],
            "DigitizedHeadPoints": [],
            "DigitizedLandmarks": [],
            "Instructions": "",
            "PowerLineFrequency": 50,
            "SamplingFrequency": [],
            "SoftwareFilters": "n/a",
            "TaskName": "visual Localizer"
        },
        "mri": {
            "Instructions": "",
            "RepetitionTime": 1.8,
            "SliceTiming": [],
            "TaskDescription": "",
            "TaskName": "visual Localizer"
        }
    },
    "color": {
        "background": [0,0,0],
        "black": [0,0,0],
        "grey": [127.5,127.5,127.5],
        "red": [255,0,0],
        "white": [255,255,255]
    },
    "debug": {
        "do": true,
        "showMouse": false,
        "smallWin": false,
        "transpWin": false
    },
    "design": {
        "localizer": "VWFA",
        "names": [
            "fw",
            "sfw",
            "bw",
            "sbw",
            "ld",
            "sld"
        ],
        "nbRepetitions": 12,
        "nbEventsPerBlock": 20,
        "blockNames": [
            "fw",
            "sfw",
            "bw",
            "sbw",
            "ld",
            "sld",
            "fw",
            "sfw",
            "bw",
            "sbw",
            "ld",
            "sld",
            "fw",
            "sfw",
            "bw",
            "sbw",
            "ld",
            "sld",
            "fw",
            "sfw",
            "bw",
            "sbw",
            "ld",
            "sld",
            "fw",
            "sfw",
            "bw",
            "sbw",
            "ld",
            "sld",
            "fw",
            "sfw",
            "bw",
            "sbw",
            "ld",
            "sld",
            "fw",
            "sfw",
            "bw",
            "sbw",
            "ld",
            "sld",
            "fw",
            "sfw",
            "bw",
            "sbw",
            "ld",
            "sld",
            "fw",
            "sfw",
            "bw",
            "sbw",
            "ld",
            "sld",
            "fw",
            "sfw",
            "bw",
            "sbw",
            "ld",
            "sld",
            "fw",
            "sfw",
            "bw",
            "sbw",
            "ld",
            "sld",
            "fw",
            "sfw",
            "bw",
            "sbw",
            "ld",
            "sld"
        ],
        "nbBlocks": 72,
        "repetitionTargets": [[0,0,0,0,0,0,0,0,0,0,0,0,0,0,0,0,0,0,0,0],[0,0,0,0,0,0,0,0,0,0,0,0,0,0,0,0,0,0,0,0],[0,1,0,0,0,0,0,0,0,0,0,0,0,0,0,0,0,0,0,0],[0,0,0,0,0,0,0,0,0,0,0,1,0,0,0,0,0,0,0,0],[0,0,0,0,0,0,0,0,0,1,0,0,0,0,0,0,0,0,0,0],[0,0,0,0,0,0,0,0,0,0,0,0,0,0,0,0,0,0,0,0],[0,0,0,1,0,0,0,0,0,0,0,0,0,0,0,0,1,0,0,0],[0,0,0,1,0,0,0,0,0,0,0,0,0,0,0,0,0,0,0,0],[0,0,0,0,0,0,0,0,0,0,0,0,1,0,0,0,0,0,0,0],[0,0,0,0,0,0,0,0,0,1,0,0,1,0,0,0,0,0,0,0],[0,0,0,0,0,0,1,0,0,0,0,0,0,0,0,0,0,0,0,0],[0,1,0,0,0,0,0,0,0,0,0,0,0,0,0,0,0,0,0,0],[0,0,0,0,0,0,0,0,0,0,0,0,0,0,0,1,0,0,0,0],[0,0,0,0,0,0,0,0,0,0,0,0,0,1,0,0,0,0,0,0],[0,0,0,0,0,0,0,0,0,0,0,0,0,0,0,0,0,0,0,0],[0,0,0,0,0,0,0,0,0,1,0,0,0,0,0,0,1,0,0,0],[0,0,0,0,0,0,0,0,0,0,0,0,0,0,0,0,0,0,0,0],[0,0,0,0,0,0,0,0,1,0,0,1,0,0,0,0,0,0,0,0],[0,0,0,0,0,0,0,0,0,0,0,0,0,0,0,0,0,0,0,0],[0,0,1,0,0,0,0,0,0,0,0,0,0,0,0,0,0,0,0,0],[0,0,0,0,0,0,0,0,0,0,0,0,0,0,0,0,0,0,0,0],[0,0,0,0,0,0,0,0,0,0,0,0,0,0,0,0,0,0,0,0],[0,0,0,0,0,0,0,0,0,0,0,0,0,0,0,0,0,0,0,0],[0,0,0,0,0,0,0,0,0,0,0,0,0,0,1,0,0,0,0,0],[0,0,1,0,0,0,0,0,0,0,0,0,0,0,0,0,0,1,0,0],[0,0,0,0,0,0,0,0,0,0,0,0,0,0,1,0,1,0,0,0],[0,0,0,0,0,0,0,1,0,0,0,0,0,0,0,0,1,0,0,0],[0,0,0,0,0,0,0,0,0,0,0,0,0,0,0,0,0,0,0,0],[0,0,0,0,0,1,0,0,0,0,0,0,0,0,0,0,0,0,1,0],[0,0,0,0,0,0,0,0,0,0,0,0,0,0,0,0,0,0,0,0],[0,0,1,0,0,0,0,0,0,0,1,0,0,0,0,0,0,0,0,0],[0,0,0,0,0,0,0,0,0,0,0,0,0,1,0,0,1,0,0,0],[0,0,0,0,0,0,0,0,0,1,0,0,0,0,0,0,0,0,0,0],[0,0,0,1,0,0,0,0,0,1,0,0,0,0,0,0,0,0,0,0],[0,0,0,0,0,0,0,0,0,0,0,0,0,0,0,0,0,0,0,0],[0,0,0,0,0,0,0,0,0,0,1,0,0,0,0,0,0,0,1,0],[0,0,0,0,0,0,0,1,0,0,0,0,0,1,0,0,0,0,0,0],[0,0,0,0,0,0,0,0,1,0,0,0,0,0,0,0,0,0,0,0],[0,0,0,0,0,0,0,0,0,1,0,0,0,0,0,0,0,0,0,0],[0,0,0,0,0,0,0,0,1,0,0,0,0,0,0,0,0,0,0,0],[0,0,0,0,0,1,0,0,0,0,0,0,0,0,0,0,0,0,0,0],[0,0,1,0,0,0,0,0,0,1,0,0,0,0,0,0,0,0,0,0],[0,0,0,0,0,0,0,0,0,0,0,1,0,0,0,0,0,0,0,0],[0,0,0,0,0,0,0,0,0,0,0,0,0,0,0,0,0,0,0,0],[0,1,0,0,0,0,0,0,0,0,0,0,1,0,0,0,0,0,0,0],[0,0,0,1,0,0,0,0,1,0,0,0,0,0,0,0,0,0,0,0],[0,0,0,0,0,0,0,0,0,0,0,0,0,0,0,0,0,0,0,0],[0,0,0,0,0,0,0,0,0,0,0,0,0,0,0,0,0,0,0,0],[0,0,0,0,0,0,1,0,0,0,0,0,0,0,0,0,0,0,0,0],[0,0,0,0,0,0,0,0,0,0,0,0,0,0,0,0,0,0,0,0],[0,0,0,0,0,0,0,0,0,0,0,0,1,0,0,0,0,0,1,0],[0,0,0,0,0,0,0,0,1,0,0,0,0,0,0,0,0,0,0,0],[0,0,0,0,0,0,0,0,0,0,1,0,0,0,1,0,0,0,0,0],[0,0,0,0,0,0,0,0,0,0,0,0,0,0,0,0,0,0,0,0],[0,0,0,0,1,0,0,0,0,0,0,0,0,0,0,0,0,0,0,0],[0,0,0,0,0,0,0,0,0,0,0,0,0,0,0,0,0,0,0,0],[0,0,0,0,0,0,0,0,0,0,0,0,0,0,0,0,0,0,0,0],[0,0,0,0,0,0,0,0,0,0,0,0,0,0,0,0,0,0,0,0],[0,1,0,0,0,0,0,0,0,0,0,0,0,0,0,0,0,0,0,0],[0,0,0,0,0,0,0,0,0,0,0,1,0,0,0,0,0,0,0,0],[0,0,0,0,0,0,0,0,0,0,0,0,0,0,0,0,0,0,0,0],[0,0,0,0,0,0,0,0,0,0,1,0,0,1,0,0,0,0,0,0],[0,0,0,0,0,0,0,0,0,0,0,0,0,0,0,0,0,0,0,0],[0,0,0,0,0,0,0,0,0,0,0,0,0,0,0,0,0,0,0,0],[0,0,0,0,0,1,0,0,0,0,0,0,0,1,0,0,0,0,0,0],[0,1,0,0,0,0,0,0,0,0,0,0,0,0,1,0,0,0,0,0],[0,0,0,0,0,0,0,0,0,0,0,0,0,0,0,0,0,0,0,0],[0,0,0,0,1,0,0,0,0,0,0,0,0,0,1,0,0,0,0,0],[0,0,0,0,0,0,0,0,0,0,0,0,0,0,0,1,0,0,1,0],[0,0,0,0,1,0,0,0,0,0,0,0,0,0,0,0,0,0,0,0],[0,0,0,0,0,0,0,0,1,0,0,0,0,0,0,0,0,0,1,0],[0,0,0,0,0,0,0,0,0,0,0,0,0,1,0,0,0,0,0,0]],
        "lengthBlock": [20,20,21,21,21,20,22,21,21,22,21,21,21,21,20,22,20,22,20,21,20,20,20,21,22,22,22,20,22,20,22,22,21,22,20,22,22,21,21,21,21,22,21,20,22,22,20,20,21,20,22,21,22,20,21,20,20,20,21,21,20,22,20,20,22,22,20,22,22,21,22,21],
        "presMatrix": [[4,20,18,12,7,5,3,2,13,6,10,17,15,11,1,19,8,14,16,9,0,0],[10,6,18,4,5,1,12,13,11,19,3,14,8,9,17,7,15,20,16,2,0,0],[15,19,19,1,20,6,8,18,7,10,17,12,16,14,11,3,5,13,4,2,9,0],[8,9,7,18,5,12,15,3,11,1,19,17,17,13,20,2,14,16,6,4,10,0],[5,9,6,10,7,14,20,15,2,11,11,18,17,12,1,3,4,13,8,16,19,0],[12,5,9,18,14,6,16,11,4,7,19,10,15,8,17,2,1,13,3,20,0,0],[8,15,5,16,16,7,2,12,13,14,18,4,3,17,9,6,19,20,20,10,1,11],[17,12,16,18,18,1,9,4,6,2,3,10,11,7,5,15,13,8,19,14,20,0],[3,2,5,12,15,8,9,6,4,10,20,13,11,11,17,1,16,14,19,7,18,0],[3,2,16,14,4,20,17,5,15,9,9,12,6,13,13,10,7,11,18,1,8,19],[19,4,12,1,5,8,16,16,11,17,18,20,7,9,13,3,6,10,15,2,14,0],[17,4,4,13,3,18,15,8,11,9,6,2,10,1,20,7,5,16,14,12,19,0],[6,3,17,11,20,1,14,10,19,15,8,16,2,9,4,18,18,7,13,12,5,0],[18,16,14,5,2,12,9,15,19,4,13,11,20,8,8,17,3,6,7,1,10,0],[12,6,9,15,13,3,19,14,4,18,8,7,20,5,11,2,17,16,1,10,0,0],[19,11,8,16,5,1,12,10,6,15,15,13,17,18,14,2,20,7,7,9,4,3],[10,8,15,19,12,16,5,4,1,6,9,11,18,2,17,20,3,7,14,13,0,0],[14,18,16,5,11,4,20,9,10,10,7,3,2,2,1,13,8,17,15,19,6,12],[11,18,17,12,1,19,13,15,20,8,2,9,14,10,4,3,7,6,16,5,0,0],[16,18,9,9,2,17,20,3,1,7,4,6,11,15,19,13,10,5,12,14,8,0],[3,7,1,16,15,10,4,18,8,13,17,2,19,20,11,5,6,14,9,12,0,0],[9,1,15,20,6,14,8,17,16,7,10,13,5,2,3,4,18,11,19,12,0,0],[19,2,18,5,11,10,4,8,9,1,3,20,7,17,13,12,15,6,14,16,0,0],[12,16,13,17,7,3,1,2,15,6,18,19,10,14,8,8,5,4,20,11,9,0],[14,4,1,1,8,6,15,7,12,17,11,2,10,13,16,9,19,20,3,3,18,5],[14,5,7,10,11,18,4,1,8,16,9,17,15,13,2,2,19,6,6,20,12,3],[12,15,6,3,14,1,8,2,2,5,19,7,9,18,13,16,11,17,17,10,4,20],[4,16,8,14,6,19,18,1,5,3,11,9,15,7,20,17,12,13,2,10,0,0],[18,10,8,1,4,13,13,11,6,15,3,16,14,17,7,12,5,19,2,9,9,20],[1,9,15,13,2,3,7,20,18,14,11,19,16,5,8,6,17,10,12,4,0,0],[8,18,16,16,10,20,13,19,5,6,7,4,4,11,9,15,2,1,3,14,12,17],[5,14,18,11,3,10,13,6,20,2,8,9,7,16,16,4,1,12,12,15,19,17],[10,5,14,20,15,19,9,1,11,6,6,12,3,18,4,16,17,7,8,2,13,0],[19,20,1,13,13,9,4,15,5,14,7,7,3,12,10,8,16,11,17,18,6,2],[20,9,16,12,5,18,11,17,4,14,3,13,6,10,15,2,7,1,19,8,0,0],[19,16,20,5,8,13,17,12,10,2,1,1,3,14,7,15,18,9,4,6,6,11],[16,12,9,14,3,1,20,7,7,4,6,18,8,19,15,15,13,17,2,11,5,10],[7,19,17,16,9,6,5,10,2,2,18,14,4,15,1,3,12,8,13,11,20,0],[8,7,9,16,17,11,14,2,18,3,3,19,6,4,1,15,20,13,5,12,10,0],[4,6,20,1,9,13,10,8,5,5,18,11,7,16,3,12,14,15,19,2,17,0],[19,18,16,10,11,8,8,12,3,6,14,4,9,13,7,5,15,20,17,2,1,0],[7,19,3,3,2,1,17,10,12,15,8,8,13,9,20,6,4,18,5,11,16,14],[6,18,8,20,19,15,3,16,1,5,10,17,17,14,9,11,4,2,12,13,7,0],[6,11,16,7,19,18,10,15,13,17,5,4,20,9,12,8,14,2,3,1,0,0],[4,6,6,18,17,13,12,2,20,8,16,5,10,15,15,19,14,7,3,9,1,11],[6,12,20,17,17,15,7,14,5,2,2,9,16,1,19,4,8,11,3,18,10,13],[12,16,3,20,18,10,5,17,4,8,7,6,19,2,9,11,1,15,13,14,0,0],[17,9,10,14,6,8,2,19,16,4,11,12,13,7,3,18,5,1,15,20,0,0],[9,17,18,1,16,13,19,19,15,14,8,12,2,6,20,3,7,10,11,5,4,0],[9,8,13,7,4,17,16,1,19,12,11,20,5,10,6,18,3,14,2,15,0,0],[18,7,14,12,15,16,8,6,3,17,13,20,9,9,5,10,11,1,4,19,19,2],[20,3,11,12,4,5,9,17,16,16,10,6,2,8,1,18,13,7,15,19,14,0],[14,9,2,3,16,18,11,12,4,15,17,17,13,8,6,7,7,1,20,19,10,5],[12,10,15,9,19,6,20,16,1,2,18,5,3,4,8,13,7,14,17,11,0,0],[10,6,18,14,9,9,3,7,12,8,20,4,17,16,1,15,5,11,13,2,19,0],[14,17,4,5,11,13,8,20,7,6,12,1,16,10,15,3,18,2,9,19,0,0],[12,15,20,7,5,13,17,2,8,19,4,9,14,3,1,10,11,18,6,16,0,0],[19,15,17,2,14,11,8,5,9,4,20,7,13,1,18,12,3,16,6,10,0,0],[10,2,2,16,11,9,20,15,6,14,1,5,18,19,3,8,13,12,7,17,4,0],[15,2,11,14,13,20,9,8,5,16,3,12,12,4,1,18,17,6,7,19,10,0],[8,5,6,9,16,4,13,1,20,2,7,19,17,3,18,10,12,14,11,15,0,0],[13,3,9,6,20,19,4,5,17,7,10,10,8,18,2,2,16,14,11,12,1,15],[17,10,6,13,18,9,11,16,12,15,8,19,20,3,2,4,1,14,7,5,0,0],[16,13,9,6,17,10,5,8,19,2,4,1,15,20,14,18,11,7,3,12,0,0],[1,17,5,20,9,12,12,19,13,15,10,4,8,6,7,7,3,18,14,2,11,16],[8,14,14,11,5,12,19,15,20,9,17,4,7,18,10,6,6,2,3,13,1,16],[8,5,20,4,11,1,7,9,16,3,19,6,15,2,13,18,14,17,12,10,0,0],[6,19,17,8,18,18,7,2,15,20,11,3,5,9,10,1,1,13,12,4,16,14],[13,4,20,2,10,14,18,9,5,11,12,16,17,8,15,7,7,1,6,3,3,19],[2,6,5,13,14,14,17,4,19,1,12,8,11,10,7,20,9,15,3,16,18,0],[15,16,8,9,18,2,11,17,4,4,3,5,1,14,12,19,13,7,20,10,10,6],[5,20,6,16,9,10,17,4,3,2,14,8,7,13,13,11,12,15,19,18,1,0]],
        "targetMatrix": [[0,0,0,0,0,0,0,0,0,0,0,0,0,0,0,0,0,0,0,0,0,0],[0,0,0,0,0,0,0,0,0,0,0,0,0,0,0,0,0,0,0,0,0,0],[0,0,1,0,0,0,0,0,0,0,0,0,0,0,0,0,0,0,0,0,0,0],[0,0,0,0,0,0,0,0,0,0,0,0,1,0,0,0,0,0,0,0,0,0],[0,0,0,0,0,0,0,0,0,0,1,0,0,0,0,0,0,0,0,0,0,0],[0,0,0,0,0,0,0,0,0,0,0,0,0,0,0,0,0,0,0,0,0,0],[0,0,0,0,1,0,0,0,0,0,0,0,0,0,0,0,0,0,1,0,0,0],[0,0,0,0,1,0,0,0,0,0,0,0,0,0,0,0,0,0,0,0,0,0],[0,0,0,0,0,0,0,0,0,0,0,0,0,1,0,0,0,0,0,0,0,0],[0,0,0,0,0,0,0,0,0,0,1,0,0,0,1,0,0,0,0,0,0,0],[0,0,0,0,0,0,0,1,0,0,0,0,0,0,0,0,0,0,0,0,0,0],[0,0,1,0,0,0,0,0,0,0,0,0,0,0,0,0,0,0,0,0,0,0],[0,0,0,0,0,0,0,0,0,0,0,0,0,0,0,0,1,0,0,0,0,0],[0,0,0,0,0,0,0,0,0,0,0,0,0,0,1,0,0,0,0,0,0,0],[0,0,0,0,0,0,0,0,0,0,0,0,0,0,0,0,0,0,0,0,0,0],[0,0,0,0,0,0,0,0,0,0,1,0,0,0,0,0,0,0,1,0,0,0],[0,0,0,0,0,0,0,0,0,0,0,0,0,0,0,0,0,0,0,0,0,0],[0,0,0,0,0,0,0,0,0,1,0,0,0,1,0,0,0,0,0,0,0,0],[0,0,0,0,0,0,0,0,0,0,0,0,0,0,0,0,0,0,0,0,0,0],[0,0,0,1,0,0,0,0,0,0,0,0,0,0,0,0,0,0,0,0,0,0],[0,0,0,0,0,0,0,0,0,0,0,0,0,0,0,0,0,0,0,0,0,0],[0,0,0,0,0,0,0,0,0,0,0,0,0,0,0,0,0,0,0,0,0,0],[0,0,0,0,0,0,0,0,0,0,0,0,0,0,0,0,0,0,0,0,0,0],[0,0,0,0,0,0,0,0,0,0,0,0,0,0,0,1,0,0,0,0,0,0],[0,0,0,1,0,0,0,0,0,0,0,0,0,0,0,0,0,0,0,1,0,0],[0,0,0,0,0,0,0,0,0,0,0,0,0,0,0,1,0,0,1,0,0,0],[0,0,0,0,0,0,0,0,1,0,0,0,0,0,0,0,0,0,1,0,0,0],[0,0,0,0,0,0,0,0,0,0,0,0,0,0,0,0,0,0,0,0,0,0],[0,0,0,0,0,0,1,0,0,0,0,0,0,0,0,0,0,0,0,0,1,0],[0,0,0,0,0,0,0,0,0,0,0,0,0,0,0,0,0,0,0,0,0,0],[0,0,0,1,0,0,0,0,0,0,0,0,1,0,0,0,0,0,0,0,0,0],[0,0,0,0,0,0,0,0,0,0,0,0,0,0,1,0,0,0,1,0,0,0],[0,0,0,0,0,0,0,0,0,0,1,0,0,0,0,0,0,0,0,0,0,0],[0,0,0,0,1,0,0,0,0,0,0,1,0,0,0,0,0,0,0,0,0,0],[0,0,0,0,0,0,0,0,0,0,0,0,0,0,0,0,0,0,0,0,0,0],[0,0,0,0,0,0,0,0,0,0,0,1,0,0,0,0,0,0,0,0,1,0],[0,0,0,0,0,0,0,0,1,0,0,0,0,0,0,1,0,0,0,0,0,0],[0,0,0,0,0,0,0,0,0,1,0,0,0,0,0,0,0,0,0,0,0,0],[0,0,0,0,0,0,0,0,0,0,1,0,0,0,0,0,0,0,0,0,0,0],[0,0,0,0,0,0,0,0,0,1,0,0,0,0,0,0,0,0,0,0,0,0],[0,0,0,0,0,0,1,0,0,0,0,0,0,0,0,0,0,0,0,0,0,0],[0,0,0,1,0,0,0,0,0,0,0,1,0,0,0,0,0,0,0,0,0,0],[0,0,0,0,0,0,0,0,0,0,0,0,1,0,0,0,0,0,0,0,0,0],[0,0,0,0,0,0,0,0,0,0,0,0,0,0,0,0,0,0,0,0,0,0],[0,0,1,0,0,0,0,0,0,0,0,0,0,0,1,0,0,0,0,0,0,0],[0,0,0,0,1,0,0,0,0,0,1,0,0,0,0,0,0,0,0,0,0,0],[0,0,0,0,0,0,0,0,0,0,0,0,0,0,0,0,0,0,0,0,0,0],[0,0,0,0,0,0,0,0,0,0,0,0,0,0,0,0,0,0,0,0,0,0],[0,0,0,0,0,0,0,1,0,0,0,0,0,0,0,0,0,0,0,0,0,0],[0,0,0,0,0,0,0,0,0,0,0,0,0,0,0,0,0,0,0,0,0,0],[0,0,0,0,0,0,0,0,0,0,0,0,0,1,0,0,0,0,0,0,1,0],[0,0,0,0,0,0,0,0,0,1,0,0,0,0,0,0,0,0,0,0,0,0],[0,0,0,0,0,0,0,0,0,0,0,1,0,0,0,0,1,0,0,0,0,0],[0,0,0,0,0,0,0,0,0,0,0,0,0,0,0,0,0,0,0,0,0,0],[0,0,0,0,0,1,0,0,0,0,0,0,0,0,0,0,0,0,0,0,0,0],[0,0,0,0,0,0,0,0,0,0,0,0,0,0,0,0,0,0,0,0,0,0],[0,0,0,0,0,0,0,0,0,0,0,0,0,0,0,0,0,0,0,0,0,0],[0,0,0,0,0,0,0,0,0,0,0,0,0,0,0,0,0,0,0,0,0,0],[0,0,1,0,0,0,0,0,0,0,0,0,0,0,0,0,0,0,0,0,0,0],[0,0,0,0,0,0,0,0,0,0,0,0,1,0,0,0,0,0,0,0,0,0],[0,0,0,0,0,0,0,0,0,0,0,0,0,0,0,0,0,0,0,0,0,0],[0,0,0,0,0,0,0,0,0,0,0,1,0,0,0,1,0,0,0,0,0,0],[0,0,0,0,0,0,0,0,0,0,0,0,0,0,0,0,0,0,0,0,0,0],[0,0,0,0,0,0,0,0,0,0,0,0,0,0,0,0,0,0,0,0,0,0],[0,0,0,0,0,0,1,0,0,0,0,0,0,0,0,1,0,0,0,0,0,0],[0,0,1,0,0,0,0,0,0,0,0,0,0,0,0,0,1,0,0,0,0,0],[0,0,0,0,0,0,0,0,0,0,0,0,0,0,0,0,0,0,0,0,0,0],[0,0,0,0,0,1,0,0,0,0,0,0,0,0,0,0,1,0,0,0,0,0],[0,0,0,0,0,0,0,0,0,0,0,0,0,0,0,0,1,0,0,0,1,0],[0,0,0,0,0,1,0,0,0,0,0,0,0,0,0,0,0,0,0,0,0,0],[0,0,0,0,0,0,0,0,0,1,0,0,0,0,0,0,0,0,0,0,1,0],[0,0,0,0,0,0,0,0,0,0,0,0,0,0,1,0,0,0,0,0,0,0]]
    },
    "dir": {
        "output": "C:\\Users\\filip\\Documents\\GitHub\\VB_localizer\\output",
        "outputSubject": "C:\\Users\\filip\\Documents\\GitHub\\VB_localizer\\output\\source\\sub-666\\ses-666"
    },
    "extraColumns": [
        "image",
        "target",
        "event",
        "block",
        "keyName"
    ],
    "eyeTracker": {
        "AverageCalibrationError": [],
        "CalibrationDistance": "",
        "CalibrationPosition": "",
        "CalibrationType": "HV5",
        "Manufacturer": "",
        "ManufacturersModelName": "",
        "MaximalCalibrationError": [],
        "PupilPositionType": "",
        "RawDataFilters": [],
        "RawSamples": [],
        "SamplingFrequency": [],
        "SoftwareVersions": "",
        "do": false
    },
    "fileName": {
        "base": "sub-666_ses-666_task-visualLocalizer",
        "datasetDescription": "C:\\Users\\filip\\Documents\\GitHub\\VB_localizer\\output\\dataset_description.json",
        "date": "202109011123",
        "dateFormat": "yyyymmddHHMM",
        "events": "sub-666_ses-666_task-visualLocalizer_acq-0p75mmEvTr2p18_run-666_events_date-202109011123.tsv",
        "modality": "func",
        "pattern": "%03.0f",
        "stim": "sub-666_ses-666_task-visualLocalizer_acq-0p75mmEvTr2p18_run-666_stim_date-202109011123.tsv",
        "suffix": {
            "acquisition": "_acq-0p75mmEvTr2p18",
            "contrastEnhancement": "",
            "echo": "",
            "phaseEncodingDirection": "",
            "reconstruction": "",
            "recording": "",
            "run": "_run-666"
        },
        "task": "visualLocalizer",
        "zeroPadding": 3
    },
    "fixation": {
        "color": [255,255,255],
        "lineWidthPix": 3,
        "type": "cross",
        "width": 0.25,
        "xDisplacement": 0,
        "yDisplacement": 0,
        "widthPix": 32.0176838375294,
        "xDisplacementPix": 0,
        "yDisplacementPix": 0,
        "xCoords": [-16.0088419187647,16.0088419187647,0,0],
        "yCoords": [0,0,-16.0088419187647,16.0088419187647],
        "allCoords": [[-16.0088419187647,16.0088419187647,0,0],[0,0,-16.0088419187647,16.0088419187647]]
    },
    "keyboard": {
        "escapeKey": "ESCAPE",
        "keyboard": [],
        "responseBox": [],
        "responseKey": [
            "r",
            "g",
            "y",
            "b",
            "d",
            "n",
            "z",
            "e",
            "t"
        ]
    },
    "mri": {
        "triggerKey": "t",
        "triggerNb": 0,
        "repetitionTime": 1.8
    },
    "pacedByTriggers": {
        "do": false
    },
    "screen": {
        "monitorDistance": 95,
        "monitorWidth": 25,
        "resolution": [[],[],[]],
        "idx": 0,
        "oldResolution": {
            "width": 1920,
            "height": 1080,
            "pixelSize": 32,
            "hz": 60
        },
        "win": 10,
        "winRect": [0,0,1920,1080],
        "winWidth": 1920,
        "winHeight": 1080,
        "center": [960,540],
        "FOV": 14.99171527945972,
        "ppd": 128.0707353501176,
        "ifi": 0.01666666666666667,
        "monitorRefresh": 60
    },
    "skipSyncTests": 0,
    "software": {
        "os": "PCWIN64",
        "name": "Psychtoolbox",
        "RRID": "SCR_002881",
        "version": "3.0.17",
        "runsOn": "Matlab - 9.10.0.1602886 (R2021a)"
    },
    "stimuli": {
        "list": [
            "img1.png",
            "img2.png",
            "img3.png",
            "img4.png",
            "img5.png",
            "img6.png",
            "img7.png",
            "img8.png",
            "img9.png",
            "img10.png",
            "img11.png",
            "img12.png",
            "img13.png",
            "img14.png",
            "img15.png",
            "img16.png",
            "img17.png",
            "img18.png",
            "img19.png",
            "img20.png"
        ]
    },
    "subject": {
        "askGrpSess": [true,true],
        "runNb": 666,
        "sessionNb": 666,
        "subjectGrp": "ctrl",
        "subjectNb": 666
    },
    "suffix": {
        "acquisition": "0p75mmEvTr2p18",
        "contrastEnhancement": [],
        "echo": [],
        "phaseEncodingDirection": [],
        "reconstruction": [],
        "recording": []
    },
    "target": {
        "maxNbPerBlock": 2,
        "duration": 0.1,
        "type": "repetition"
    },
    "task": {
        "name": "visual localizer",
        "instruction": "TASK - Detect the repetition \\n \\n\\n"
    },
    "testingDevice": "mri",
    "text": {
        "color": [255,255,255],
        "font": "Courier New",
        "size": 18,
        "style": 1
    },
    "timing": {
        "eventDuration": 2,
        "IBI": 0,
        "ISI": 0.01,
        "onsetDelay": 0,
        "endDelay": 3.6
    },
    "useGUI": false,
    "verbose": 1,
    "experimentStart": 655105.0476709
}