{
    "Instructions": "",
    "RepetitionTime": 1.8,
    "SliceTiming": [],
    "TaskDescription": "",
    "TaskName": "visual Localizer",
    "aperture": {
        "type": "none"
    },
    "audio": {
        "do": false
    },
    "bids": {
        "MRI": {
            "Instructions": "Detect the repeated stimulus",
            "TaskDescription": []
        },
        "beh": {
            "Instructions": [],
            "TaskName": "visual Localizer"
        },
        "datasetDescription": {
            "Acknowledgements": "",
            "Authors": [""],
            "BIDSVersion": "",
            "DatasetDOI": "",
            "Funding": [""],
            "HowToAcknowledge": "",
            "License": "",
            "Name": "",
            "ReferencesAndLinks": [""]
        },
        "eeg": {
            "EEGReference": "",
            "Instructions": "",
            "PowerLineFrequency": 50,
            "SamplingFrequency": [],
            "SoftwareFilters": "n/a",
            "TaskName": "visual Localizer"
        },
        "ieeg": {
            "Instructions": "",
            "PowerLineFrequency": 50,
            "SamplingFrequency": [],
            "SoftwareFilters": "n/a",
            "TaskName": "visual Localizer",
            "iEEGReference": ""
        },
        "meg": {
            "DewarPosition": [],
            "DigitizedHeadPoints": [],
            "DigitizedLandmarks": [],
            "Instructions": "",
            "PowerLineFrequency": 50,
            "SamplingFrequency": [],
            "SoftwareFilters": "n/a",
            "TaskName": "visual Localizer"
        },
        "mri": {
            "Instructions": "",
            "RepetitionTime": 1.8,
            "SliceTiming": [],
            "TaskDescription": "",
            "TaskName": "visual Localizer"
        }
    },
    "color": {
        "background": [0,0,0],
        "black": [0,0,0],
        "grey": [127.5,127.5,127.5],
        "red": [255,0,0],
        "white": [255,255,255]
    },
    "debug": {
        "do": false,
        "showMouse": false,
        "smallWin": false,
        "transpWin": false
    },
    "design": {
        "localizer": "VWFA",
        "names": [
            "fw",
            "sfw",
            "bw",
            "sbw",
            "ld",
            "sld"
        ],
        "nbRepetitions": 12,
        "nbEventsPerBlock": 20,
        "blockNames": [
            "fw",
            "sfw",
            "bw",
            "sbw",
            "ld",
            "sld",
            "fw",
            "sfw",
            "bw",
            "sbw",
            "ld",
            "sld",
            "fw",
            "sfw",
            "bw",
            "sbw",
            "ld",
            "sld",
            "fw",
            "sfw",
            "bw",
            "sbw",
            "ld",
            "sld",
            "fw",
            "sfw",
            "bw",
            "sbw",
            "ld",
            "sld",
            "fw",
            "sfw",
            "bw",
            "sbw",
            "ld",
            "sld",
            "fw",
            "sfw",
            "bw",
            "sbw",
            "ld",
            "sld",
            "fw",
            "sfw",
            "bw",
            "sbw",
            "ld",
            "sld",
            "fw",
            "sfw",
            "bw",
            "sbw",
            "ld",
            "sld",
            "fw",
            "sfw",
            "bw",
            "sbw",
            "ld",
            "sld",
            "fw",
            "sfw",
            "bw",
            "sbw",
            "ld",
            "sld",
            "fw",
            "sfw",
            "bw",
            "sbw",
            "ld",
            "sld"
        ],
        "nbBlocks": 72,
        "repetitionTargets": [[0,0,0,0,0,0,0,0,1,0,0,0,0,0,1,0,0,0,0,0],[0,0,0,1,0,0,0,0,0,0,0,0,0,0,0,0,0,1,0,0],[0,0,0,0,0,0,0,0,0,0,0,0,0,0,0,0,0,1,0,0],[0,0,0,0,0,0,0,0,0,0,0,0,0,0,0,0,0,0,0,0],[0,0,0,0,0,0,0,0,0,0,0,0,0,0,0,1,0,0,0,0],[0,0,0,0,0,0,0,0,0,0,0,0,0,0,0,0,0,0,1,0],[0,0,0,0,0,0,0,0,0,0,0,0,0,0,0,0,0,0,0,0],[0,0,0,0,0,0,0,0,0,1,0,0,0,1,0,0,0,0,0,0],[0,0,0,0,0,0,0,1,0,0,0,0,0,1,0,0,0,0,0,0],[0,0,1,0,0,0,0,0,0,0,0,0,0,0,0,0,0,0,0,0],[0,0,0,0,0,0,0,0,0,0,0,0,0,0,0,0,0,0,0,0],[0,0,0,0,0,0,0,0,0,0,0,0,0,0,0,0,0,0,0,0],[0,0,0,0,0,0,0,0,0,0,0,0,0,0,0,0,0,0,0,0],[0,0,0,0,0,0,0,0,0,0,0,0,0,0,0,0,0,0,0,0],[0,0,0,0,0,0,0,0,1,0,0,0,0,0,0,0,0,1,0,0],[0,0,0,0,0,0,0,0,0,0,0,0,0,0,0,0,0,0,0,0],[0,0,0,0,0,1,0,0,0,0,0,0,0,0,0,0,0,0,0,0],[0,1,0,0,0,0,0,1,0,0,0,0,0,0,0,0,0,0,0,0],[0,0,0,0,0,0,1,0,0,0,0,0,0,0,0,0,0,0,0,0],[0,0,0,0,0,0,0,0,0,0,0,0,0,0,0,0,1,0,0,0],[0,0,0,0,0,0,0,0,0,0,1,0,0,0,0,0,0,0,0,0],[0,0,0,1,0,0,0,0,0,0,0,0,0,0,0,0,0,0,1,0],[0,0,0,1,0,0,0,0,0,0,0,0,0,0,0,0,1,0,0,0],[0,0,0,0,0,1,0,0,0,0,0,0,0,0,0,0,0,0,0,0],[0,0,0,0,0,0,0,0,0,1,0,0,0,1,0,0,0,0,0,0],[0,0,0,0,0,0,1,0,0,0,0,0,0,0,0,0,0,0,0,0],[0,0,0,0,0,0,0,0,0,0,0,0,0,0,0,0,0,0,1,0],[0,0,0,1,0,0,0,0,0,0,0,0,0,0,1,0,0,0,0,0],[0,0,0,0,0,0,0,0,0,0,1,0,0,0,0,0,0,0,0,0],[0,0,0,0,0,0,0,0,0,0,0,0,0,0,0,0,0,0,0,0],[0,1,0,0,0,0,0,0,0,0,0,0,0,0,0,0,0,0,0,0],[0,0,0,0,0,0,0,0,0,0,0,0,0,0,0,0,0,0,0,0],[0,0,0,0,0,0,0,0,1,0,0,0,0,0,0,0,1,0,0,0],[0,0,0,0,0,0,0,0,0,0,0,0,0,0,0,0,0,0,0,0],[0,0,0,0,0,0,0,0,0,0,0,0,0,0,0,0,0,0,0,0],[0,0,0,1,0,0,0,0,0,0,0,0,0,0,0,0,0,0,0,0],[0,0,0,0,0,0,0,0,0,1,0,0,0,0,0,0,0,0,0,0],[0,0,0,0,0,0,0,0,0,0,0,0,0,0,0,0,0,0,0,0],[0,0,0,0,0,0,0,0,0,0,0,0,0,0,0,0,0,0,0,0],[0,0,0,0,0,0,0,0,0,0,0,0,0,0,0,0,0,0,0,0],[0,0,0,0,0,0,1,0,1,0,0,0,0,0,0,0,0,0,0,0],[0,0,0,0,0,0,0,0,0,0,0,0,0,0,0,0,0,0,0,0],[0,0,0,0,0,0,0,0,0,0,0,0,0,0,1,0,1,0,0,0],[0,0,0,0,0,0,0,0,0,0,0,0,0,0,0,0,0,0,0,0],[0,0,0,0,0,0,0,0,0,0,0,0,0,0,0,0,0,0,0,0],[0,0,0,1,0,0,0,0,0,0,0,0,0,0,0,0,1,0,0,0],[0,0,0,0,0,1,0,0,0,0,0,0,0,0,1,0,0,0,0,0],[0,0,0,0,0,0,0,0,0,0,0,0,0,0,0,0,0,0,1,0],[0,0,0,0,0,0,0,0,0,0,0,0,0,0,0,0,0,0,0,0],[0,0,1,0,0,0,1,0,0,0,0,0,0,0,0,0,0,0,0,0],[0,0,0,0,0,0,1,0,0,0,0,0,0,0,0,0,0,0,0,0],[0,0,0,0,0,0,0,0,0,0,0,0,0,0,1,0,0,0,0,0],[0,0,0,0,0,0,0,0,0,0,0,1,0,0,0,0,1,0,0,0],[0,0,0,0,0,0,0,1,0,0,0,0,0,0,0,0,0,0,1,0],[0,0,0,0,0,0,0,0,0,0,0,0,0,0,1,0,0,1,0,0],[0,0,0,0,1,0,0,0,0,0,0,0,0,0,0,0,0,0,0,0],[0,0,0,0,0,0,0,0,0,0,0,0,0,0,0,0,0,0,0,0],[0,0,0,0,0,0,0,1,0,0,0,0,0,0,1,0,0,0,0,0],[0,0,0,0,0,0,0,0,0,0,0,0,0,0,0,0,0,0,0,0],[0,0,0,0,0,1,0,0,0,0,0,0,0,0,0,0,1,0,0,0],[0,0,0,0,0,0,0,0,0,0,0,0,0,0,0,0,0,0,0,0],[0,0,0,0,1,0,0,0,0,0,0,0,0,0,0,0,0,0,0,0],[0,0,0,0,0,0,0,0,0,0,0,0,0,0,0,0,0,0,0,0],[0,0,0,0,0,0,0,0,0,0,0,0,0,0,0,0,1,0,0,0],[0,0,0,0,0,0,0,0,0,0,0,1,0,0,0,0,0,0,0,0],[0,0,0,0,1,0,0,1,0,0,0,0,0,0,0,0,0,0,0,0],[0,0,0,0,0,0,0,0,0,0,0,0,0,0,0,0,0,0,1,0],[0,0,0,1,0,0,1,0,0,0,0,0,0,0,0,0,0,0,0,0],[0,0,0,0,0,0,0,0,0,1,0,1,0,0,0,0,0,0,0,0],[0,0,0,0,0,0,0,0,0,0,0,0,0,0,1,0,0,0,0,0],[0,0,0,0,0,0,0,0,0,0,0,0,0,0,0,0,0,0,0,0],[0,0,0,0,0,0,0,0,0,0,0,0,0,0,0,0,0,0,0,0]],
        "lengthBlock": [22,22,21,20,21,21,20,22,22,21,20,20,20,20,22,20,21,22,21,21,21,22,22,21,22,21,21,22,21,20,21,20,22,20,20,21,21,20,20,20,22,20,22,20,20,22,22,21,20,22,21,21,22,22,22,21,20,22,20,22,20,21,20,21,21,22,21,22,22,21,20,20],
        "presMatrix": [[17,11,8,16,2,13,19,5,7,7,10,4,20,14,6,12,12,15,9,1,3,18],[1,13,8,18,18,9,7,2,12,14,11,10,16,3,17,6,19,20,5,5,15,4],[15,3,19,12,6,7,10,8,17,20,2,14,18,11,5,13,4,16,16,9,1,0],[8,12,10,3,16,5,11,4,20,7,18,2,1,13,17,15,9,6,19,14,0,0],[3,10,13,4,2,9,12,19,7,15,20,14,8,16,5,1,1,11,6,18,17,0],[5,8,14,19,2,17,20,4,13,1,10,6,3,15,16,18,12,9,11,11,7,0],[8,7,5,18,3,20,14,15,4,11,9,2,1,6,13,19,10,17,12,16,0,0],[10,2,5,19,20,4,1,9,12,15,15,16,14,13,8,8,17,11,3,18,6,7],[5,11,16,9,2,1,10,6,6,15,17,7,13,14,19,19,18,12,3,4,8,20],[15,10,12,12,19,16,18,11,2,14,13,1,3,8,7,17,9,6,4,20,5,0],[2,7,1,6,12,20,5,8,9,15,3,14,18,13,10,11,16,19,4,17,0,0],[14,3,10,12,16,7,5,1,6,20,11,8,19,17,4,2,9,13,18,15,0,0],[14,17,7,12,1,9,6,11,19,10,4,5,2,13,20,3,8,18,16,15,0,0],[1,9,20,14,10,13,11,15,19,12,16,18,5,2,17,6,4,3,8,7,0,0],[17,5,18,19,4,16,15,1,6,6,2,8,13,11,7,9,20,12,10,10,14,3],[11,8,10,17,2,7,14,16,4,12,9,6,18,3,13,19,1,20,15,5,0,0],[12,19,20,7,17,11,11,5,14,4,10,2,1,18,9,16,3,8,15,13,6,0],[8,9,9,10,16,5,13,11,6,6,12,7,17,20,15,1,14,4,2,19,18,3],[3,7,8,11,13,12,15,15,10,14,9,20,2,4,5,1,17,18,19,16,6,0],[4,7,3,16,15,1,8,2,11,17,9,12,5,20,14,13,10,10,6,19,18,0],[5,10,20,8,12,15,17,19,11,13,4,4,6,14,1,3,7,18,9,2,16,0],[15,6,1,11,11,4,14,12,17,18,2,13,16,3,19,20,7,9,8,10,10,5],[15,11,8,12,12,1,13,2,20,7,9,3,6,5,14,18,17,19,19,10,4,16],[8,11,18,15,10,7,7,1,3,12,20,13,6,9,2,5,17,14,16,19,4,0],[14,13,7,1,12,4,20,16,11,19,19,6,10,15,17,17,9,3,18,5,2,8],[14,17,18,10,6,15,9,9,16,5,1,7,19,3,11,4,13,20,2,12,8,0],[6,1,13,19,9,18,8,17,14,11,3,7,5,10,12,20,16,15,2,2,4,0],[5,8,19,18,18,17,14,1,6,3,9,20,16,13,11,4,4,12,2,10,15,7],[3,20,9,1,13,7,10,5,15,12,8,8,6,18,11,16,19,14,4,2,17,0],[13,9,7,18,4,5,11,10,15,6,17,19,12,14,1,20,2,8,3,16,0,0],[13,1,1,6,18,16,2,15,3,14,8,7,10,19,17,20,11,4,12,5,9,0],[10,19,20,15,13,16,8,17,7,3,4,1,11,6,2,14,18,9,5,12,0,0],[7,11,14,9,10,19,1,13,2,2,5,16,6,12,4,15,3,8,8,20,17,18],[1,15,2,18,6,9,19,12,5,8,3,14,17,10,13,4,7,11,20,16,0,0],[14,11,13,7,1,20,2,15,10,17,18,8,16,12,4,3,6,5,19,9,0,0],[18,17,2,4,4,12,11,3,13,15,8,16,19,7,14,1,9,20,6,10,5,0],[7,4,12,5,19,6,3,9,8,20,20,2,10,16,14,15,18,13,11,1,17,0],[14,18,2,4,8,10,17,13,6,19,20,5,12,15,1,11,16,9,3,7,0,0],[1,7,14,9,3,15,5,17,13,12,8,20,18,2,4,16,6,19,11,10,0,0],[17,2,4,14,12,6,7,19,3,5,20,15,18,13,11,9,10,16,1,8,0,0],[1,8,4,3,2,6,10,10,12,20,20,18,9,7,11,13,15,5,14,17,16,19],[10,16,4,14,19,9,13,8,7,1,5,11,15,6,17,12,18,20,3,2,0,0],[7,8,12,13,6,20,4,10,15,11,2,5,1,19,17,17,9,18,18,16,3,14],[16,12,18,14,10,19,2,3,5,1,15,9,13,6,8,20,11,7,4,17,0,0],[14,1,7,15,16,13,11,4,8,19,6,17,18,3,9,12,5,10,2,20,0,0],[14,2,5,8,8,15,7,13,9,17,10,12,18,6,1,3,16,19,19,4,20,11],[16,9,8,13,5,3,3,1,12,2,19,11,7,4,14,18,18,20,17,10,6,15],[19,16,13,5,8,9,20,15,3,2,14,18,10,1,4,7,6,17,12,12,11,0],[8,16,20,19,15,14,17,10,6,5,13,7,18,9,4,2,11,3,1,12,0,0],[13,6,9,9,2,11,14,7,7,10,4,19,17,16,5,8,15,3,1,12,18,20],[7,6,2,20,11,17,14,14,12,5,18,16,15,1,4,19,13,3,9,8,10,0],[6,10,16,4,7,15,18,2,5,1,13,19,12,11,8,8,3,9,20,14,17,0],[13,2,5,8,15,20,12,1,9,14,4,10,10,17,11,7,18,6,6,3,19,16],[17,19,1,4,11,6,5,20,20,15,13,12,9,10,14,3,8,18,7,16,16,2],[7,13,14,17,12,5,1,15,16,19,8,18,3,9,20,20,4,10,2,2,6,11],[14,6,10,13,1,1,12,5,15,8,3,19,16,20,7,9,11,4,18,2,17,0],[18,12,15,13,4,9,17,19,11,16,3,14,7,10,1,5,8,20,2,6,0,0],[1,20,18,6,4,10,16,12,12,2,9,15,8,3,19,14,14,5,7,11,13,17],[12,8,9,17,19,13,15,2,5,14,1,3,4,7,10,6,20,18,11,16,0,0],[13,12,1,6,16,3,3,5,18,7,14,4,17,19,10,9,20,2,2,11,15,8],[5,10,18,14,7,3,1,12,6,4,15,13,9,2,11,20,8,16,19,17,0,0],[4,12,7,8,15,15,20,13,16,18,1,11,5,6,19,17,3,10,14,9,2,0],[13,16,1,17,2,12,19,20,5,18,15,9,14,4,6,7,11,10,8,3,0,0],[16,9,12,13,18,1,14,19,17,2,6,5,3,8,20,4,11,11,10,15,7,0],[11,17,18,13,1,8,19,3,2,12,16,15,15,5,14,7,9,10,4,6,20,0],[9,15,18,12,5,5,2,10,19,19,6,13,4,16,17,20,8,7,1,14,11,3],[18,19,6,15,4,2,3,13,5,12,11,1,9,7,14,10,16,8,20,20,17,0],[2,8,3,9,9,14,13,17,17,4,5,18,7,12,15,19,20,10,6,1,16,11],[19,13,9,16,5,7,2,11,4,6,6,8,15,15,3,20,18,14,12,1,10,17],[9,4,13,10,2,11,3,16,19,15,18,6,8,7,20,20,5,1,12,17,14,0],[19,11,16,10,3,6,8,20,13,14,12,4,1,5,2,15,9,18,7,17,0,0],[12,5,10,7,19,2,13,9,16,17,20,4,6,8,1,14,15,11,18,3,0,0]],
        "targetMatrix": [[0,0,0,0,0,0,0,0,0,1,0,0,0,0,0,0,1,0,0,0,0,0],[0,0,0,0,1,0,0,0,0,0,0,0,0,0,0,0,0,0,0,1,0,0],[0,0,0,0,0,0,0,0,0,0,0,0,0,0,0,0,0,0,1,0,0,0],[0,0,0,0,0,0,0,0,0,0,0,0,0,0,0,0,0,0,0,0,0,0],[0,0,0,0,0,0,0,0,0,0,0,0,0,0,0,0,1,0,0,0,0,0],[0,0,0,0,0,0,0,0,0,0,0,0,0,0,0,0,0,0,0,1,0,0],[0,0,0,0,0,0,0,0,0,0,0,0,0,0,0,0,0,0,0,0,0,0],[0,0,0,0,0,0,0,0,0,0,1,0,0,0,0,1,0,0,0,0,0,0],[0,0,0,0,0,0,0,0,1,0,0,0,0,0,0,1,0,0,0,0,0,0],[0,0,0,1,0,0,0,0,0,0,0,0,0,0,0,0,0,0,0,0,0,0],[0,0,0,0,0,0,0,0,0,0,0,0,0,0,0,0,0,0,0,0,0,0],[0,0,0,0,0,0,0,0,0,0,0,0,0,0,0,0,0,0,0,0,0,0],[0,0,0,0,0,0,0,0,0,0,0,0,0,0,0,0,0,0,0,0,0,0],[0,0,0,0,0,0,0,0,0,0,0,0,0,0,0,0,0,0,0,0,0,0],[0,0,0,0,0,0,0,0,0,1,0,0,0,0,0,0,0,0,0,1,0,0],[0,0,0,0,0,0,0,0,0,0,0,0,0,0,0,0,0,0,0,0,0,0],[0,0,0,0,0,0,1,0,0,0,0,0,0,0,0,0,0,0,0,0,0,0],[0,0,1,0,0,0,0,0,0,1,0,0,0,0,0,0,0,0,0,0,0,0],[0,0,0,0,0,0,0,1,0,0,0,0,0,0,0,0,0,0,0,0,0,0],[0,0,0,0,0,0,0,0,0,0,0,0,0,0,0,0,0,1,0,0,0,0],[0,0,0,0,0,0,0,0,0,0,0,1,0,0,0,0,0,0,0,0,0,0],[0,0,0,0,1,0,0,0,0,0,0,0,0,0,0,0,0,0,0,0,1,0],[0,0,0,0,1,0,0,0,0,0,0,0,0,0,0,0,0,0,1,0,0,0],[0,0,0,0,0,0,1,0,0,0,0,0,0,0,0,0,0,0,0,0,0,0],[0,0,0,0,0,0,0,0,0,0,1,0,0,0,0,1,0,0,0,0,0,0],[0,0,0,0,0,0,0,1,0,0,0,0,0,0,0,0,0,0,0,0,0,0],[0,0,0,0,0,0,0,0,0,0,0,0,0,0,0,0,0,0,0,1,0,0],[0,0,0,0,1,0,0,0,0,0,0,0,0,0,0,0,1,0,0,0,0,0],[0,0,0,0,0,0,0,0,0,0,0,1,0,0,0,0,0,0,0,0,0,0],[0,0,0,0,0,0,0,0,0,0,0,0,0,0,0,0,0,0,0,0,0,0],[0,0,1,0,0,0,0,0,0,0,0,0,0,0,0,0,0,0,0,0,0,0],[0,0,0,0,0,0,0,0,0,0,0,0,0,0,0,0,0,0,0,0,0,0],[0,0,0,0,0,0,0,0,0,1,0,0,0,0,0,0,0,0,1,0,0,0],[0,0,0,0,0,0,0,0,0,0,0,0,0,0,0,0,0,0,0,0,0,0],[0,0,0,0,0,0,0,0,0,0,0,0,0,0,0,0,0,0,0,0,0,0],[0,0,0,0,1,0,0,0,0,0,0,0,0,0,0,0,0,0,0,0,0,0],[0,0,0,0,0,0,0,0,0,0,1,0,0,0,0,0,0,0,0,0,0,0],[0,0,0,0,0,0,0,0,0,0,0,0,0,0,0,0,0,0,0,0,0,0],[0,0,0,0,0,0,0,0,0,0,0,0,0,0,0,0,0,0,0,0,0,0],[0,0,0,0,0,0,0,0,0,0,0,0,0,0,0,0,0,0,0,0,0,0],[0,0,0,0,0,0,0,1,0,0,1,0,0,0,0,0,0,0,0,0,0,0],[0,0,0,0,0,0,0,0,0,0,0,0,0,0,0,0,0,0,0,0,0,0],[0,0,0,0,0,0,0,0,0,0,0,0,0,0,0,1,0,0,1,0,0,0],[0,0,0,0,0,0,0,0,0,0,0,0,0,0,0,0,0,0,0,0,0,0],[0,0,0,0,0,0,0,0,0,0,0,0,0,0,0,0,0,0,0,0,0,0],[0,0,0,0,1,0,0,0,0,0,0,0,0,0,0,0,0,0,1,0,0,0],[0,0,0,0,0,0,1,0,0,0,0,0,0,0,0,0,1,0,0,0,0,0],[0,0,0,0,0,0,0,0,0,0,0,0,0,0,0,0,0,0,0,1,0,0],[0,0,0,0,0,0,0,0,0,0,0,0,0,0,0,0,0,0,0,0,0,0],[0,0,0,1,0,0,0,0,1,0,0,0,0,0,0,0,0,0,0,0,0,0],[0,0,0,0,0,0,0,1,0,0,0,0,0,0,0,0,0,0,0,0,0,0],[0,0,0,0,0,0,0,0,0,0,0,0,0,0,0,1,0,0,0,0,0,0],[0,0,0,0,0,0,0,0,0,0,0,0,1,0,0,0,0,0,1,0,0,0],[0,0,0,0,0,0,0,0,1,0,0,0,0,0,0,0,0,0,0,0,1,0],[0,0,0,0,0,0,0,0,0,0,0,0,0,0,0,1,0,0,0,1,0,0],[0,0,0,0,0,1,0,0,0,0,0,0,0,0,0,0,0,0,0,0,0,0],[0,0,0,0,0,0,0,0,0,0,0,0,0,0,0,0,0,0,0,0,0,0],[0,0,0,0,0,0,0,0,1,0,0,0,0,0,0,0,1,0,0,0,0,0],[0,0,0,0,0,0,0,0,0,0,0,0,0,0,0,0,0,0,0,0,0,0],[0,0,0,0,0,0,1,0,0,0,0,0,0,0,0,0,0,0,1,0,0,0],[0,0,0,0,0,0,0,0,0,0,0,0,0,0,0,0,0,0,0,0,0,0],[0,0,0,0,0,1,0,0,0,0,0,0,0,0,0,0,0,0,0,0,0,0],[0,0,0,0,0,0,0,0,0,0,0,0,0,0,0,0,0,0,0,0,0,0],[0,0,0,0,0,0,0,0,0,0,0,0,0,0,0,0,0,1,0,0,0,0],[0,0,0,0,0,0,0,0,0,0,0,0,1,0,0,0,0,0,0,0,0,0],[0,0,0,0,0,1,0,0,0,1,0,0,0,0,0,0,0,0,0,0,0,0],[0,0,0,0,0,0,0,0,0,0,0,0,0,0,0,0,0,0,0,1,0,0],[0,0,0,0,1,0,0,0,1,0,0,0,0,0,0,0,0,0,0,0,0,0],[0,0,0,0,0,0,0,0,0,0,1,0,0,1,0,0,0,0,0,0,0,0],[0,0,0,0,0,0,0,0,0,0,0,0,0,0,0,1,0,0,0,0,0,0],[0,0,0,0,0,0,0,0,0,0,0,0,0,0,0,0,0,0,0,0,0,0],[0,0,0,0,0,0,0,0,0,0,0,0,0,0,0,0,0,0,0,0,0,0]]
    },
    "dir": {
        "output": "C:\\Users\\filip\\Documents\\GitHub\\VB_localizer\\output",
        "outputSubject": "C:\\Users\\filip\\Documents\\GitHub\\VB_localizer\\output\\source\\sub-004\\ses-004"
    },
    "extraColumns": [
        "image",
        "target",
        "event",
        "block",
        "keyName"
    ],
    "eyeTracker": {
        "AverageCalibrationError": [],
        "CalibrationDistance": "",
        "CalibrationPosition": "",
        "CalibrationType": "HV5",
        "Manufacturer": "",
        "ManufacturersModelName": "",
        "MaximalCalibrationError": [],
        "PupilPositionType": "",
        "RawDataFilters": [],
        "RawSamples": [],
        "SamplingFrequency": [],
        "SoftwareVersions": "",
        "do": false
    },
    "fileName": {
        "base": "sub-004_ses-004_task-visualLocalizer",
        "datasetDescription": "C:\\Users\\filip\\Documents\\GitHub\\VB_localizer\\output\\dataset_description.json",
        "date": "202110091635",
        "dateFormat": "yyyymmddHHMM",
        "events": "sub-004_ses-004_task-visualLocalizer_acq-0p75mmEvTr2p18_run-000_events_date-202110091635.tsv",
        "modality": "func",
        "pattern": "%03.0f",
        "stim": "sub-004_ses-004_task-visualLocalizer_acq-0p75mmEvTr2p18_run-000_stim_date-202110091635.tsv",
        "suffix": {
            "acquisition": "_acq-0p75mmEvTr2p18",
            "contrastEnhancement": "",
            "echo": "",
            "phaseEncodingDirection": "",
            "reconstruction": "",
            "recording": "",
            "run": "_run-000"
        },
        "task": "visualLocalizer",
        "zeroPadding": 3
    },
    "fixation": {
        "color": [255,255,255],
        "lineWidthPix": 3,
        "type": "cross",
        "width": 0.25,
        "xDisplacement": 0,
        "yDisplacement": 0,
        "widthPix": 32.0176838375294,
        "xDisplacementPix": 0,
        "yDisplacementPix": 0,
        "xCoords": [-16.0088419187647,16.0088419187647,0,0],
        "yCoords": [0,0,-16.0088419187647,16.0088419187647],
        "allCoords": [[-16.0088419187647,16.0088419187647,0,0],[0,0,-16.0088419187647,16.0088419187647]]
    },
    "keyboard": {
        "escapeKey": "ESCAPE",
        "keyboard": [],
        "responseBox": [],
        "responseKey": [
            "r",
            "g",
            "y",
            "b",
            "d",
            "n",
            "z",
            "e",
            "t"
        ]
    },
    "mri": {
        "triggerKey": "t",
        "triggerNb": 0,
        "repetitionTime": 1.8
    },
    "pacedByTriggers": {
        "do": false
    },
    "screen": {
        "monitorDistance": 95,
        "monitorWidth": 25,
        "resolution": [[],[],[]],
        "idx": 0,
        "oldResolution": {
            "width": 1920,
            "height": 1080,
            "pixelSize": 32,
            "hz": 60
        },
        "win": 10,
        "winRect": [0,0,1920,1080],
        "winWidth": 1920,
        "winHeight": 1080,
        "center": [960,540],
        "FOV": 14.99171527945972,
        "ppd": 128.0707353501176,
        "ifi": 0.01668067199992947,
        "monitorRefresh": 59.94962313294261
    },
    "skipSyncTests": 1,
    "software": {
        "os": "PCWIN64",
        "name": "Psychtoolbox",
        "RRID": "SCR_002881",
        "version": "3.0.17",
        "runsOn": "Matlab - 9.10.0.1602886 (R2021a)"
    },
    "stimuli": {
        "list": [
            "img1.png",
            "img2.png",
            "img3.png",
            "img4.png",
            "img5.png",
            "img6.png",
            "img7.png",
            "img8.png",
            "img9.png",
            "img10.png",
            "img11.png",
            "img12.png",
            "img13.png",
            "img14.png",
            "img15.png",
            "img16.png",
            "img17.png",
            "img18.png",
            "img19.png",
            "img20.png"
        ]
    },
    "subject": {
        "askGrpSess": [true,true],
        "runNb": "",
        "sessionNb": 4,
        "subjectGrp": 4,
        "subjectNb": 4
    },
    "suffix": {
        "acquisition": "0p75mmEvTr2p18",
        "contrastEnhancement": [],
        "echo": [],
        "phaseEncodingDirection": [],
        "reconstruction": [],
        "recording": []
    },
    "target": {
        "maxNbPerBlock": 2,
        "duration": 0.1,
        "type": "repetition"
    },
    "task": {
        "name": "visual localizer",
        "instruction": "TASK - Detect the repetition \\n \\n\\n"
    },
    "testingDevice": "mri",
    "text": {
        "color": [255,255,255],
        "font": "Courier New",
        "size": 18,
        "style": 1
    },
    "timing": {
        "eventDuration": 0.5,
        "IBI": 0,
        "ISI": 0.01,
        "onsetDelay": 0,
        "endDelay": 3.6
    },
    "useGUI": false,
    "verbose": 1,
    "experimentStart": 52993.525778716
}